TITLE = "Visualization of the volumetric solution"
VARIABLES = "x","y","Conservative_1","Conservative_2","Conservative_3","Conservative_4","Pressure","Pressure_Coefficient","Mach"
ZONE NODES= 5233, ELEMENTS= 10216, DATAPACKING=POINT, ZONETYPE=FEQUADRILATERAL
9.997500e-01	-3.632897e-05	1.232273e+00	5.944326e+01	8.015207e+00	2.580043e+05	1.026178e+05	4.698497e-01	1.425563e-01	
9.990000e-01	-1.452538e-04	1.232237e+00	6.254910e+01	8.950579e+00	2.580426e+05	1.025690e+05	4.521203e-01	1.502115e-01	
9.977600e-01	-3.251112e-04	1.230760e+00	6.480868e+01	9.263714e+00	2.577684e+05	1.024109e+05	3.946371e-01	1.558481e-01	
9.960200e-01	-5.769984e-04	1.229980e+00	6.654313e+01	9.560735e+00	2.576328e+05	1.023183e+05	3.609810e-01	1.601587e-01	
9.937800e-01	-9.004365e-04	1.229356e+00	6.786886e+01	9.754448e+00	2.575237e+05	1.022446e+05	3.342182e-01	1.634509e-01	
9.910500e-01	-1.293364e-03	1.228839e+00	6.895615e+01	9.884725e+00	2.574335e+05	1.021836e+05	3.120379e-01	1.661452e-01	
9.878400e-01	-1.753610e-03	1.228401e+00	6.987497e+01	9.983245e+00	2.573572e+05	1.021317e+05	2.931881e-01	1.684206e-01	
9.841300e-01	-2.283177e-03	1.228022e+00	7.066730e+01	1.005468e+01	2.572914e+05	1.020868e+05	2.768491e-01	1.703800e-01	
9.799500e-01	-2.876826e-03	1.227691e+00	7.135714e+01	1.010159e+01	2.572337e+05	1.020473e+05	2.625209e-01	1.720825e-01	
9.752800e-01	-3.536324e-03	1.227392e+00	7.196220e+01	1.012883e+01	2.571815e+05	1.020121e+05	2.497029e-01	1.735733e-01	
9.701500e-01	-4.256269e-03	1.227124e+00	7.249962e+01	1.013922e+01	2.571347e+05	1.019805e+05	2.382117e-01	1.748941e-01	
9.645400e-01	-5.038225e-03	1.226882e+00	7.298159e+01	1.013511e+01	2.570924e+05	1.019520e+05	2.278533e-01	1.760752e-01	
9.584700e-01	-5.878077e-03	1.226663e+00	7.341603e+01	1.011814e+01	2.570541e+05	1.019261e+05	2.184731e-01	1.771362e-01	
9.519400e-01	-6.774429e-03	1.226464e+00	7.380906e+01	1.008954e+01	2.570192e+05	1.019027e+05	2.099594e-01	1.780925e-01	
9.449600e-01	-7.724467e-03	1.226282e+00	7.416575e+01	1.005043e+01	2.569874e+05	1.018814e+05	2.022082e-01	1.789568e-01	
9.375400e-01	-8.725349e-03	1.226117e+00	7.449017e+01	1.000159e+01	2.569585e+05	1.018620e+05	1.951615e-01	1.797391e-01	
9.296900e-01	-9.774221e-03	1.225967e+00	7.478540e+01	9.943905e+00	2.569322e+05	1.018443e+05	1.887460e-01	1.804474e-01	
9.214000e-01	-1.087086e-02	1.225830e+00	7.505410e+01	9.878079e+00	2.569082e+05	1.018283e+05	1.829076e-01	1.810883e-01	
9.127000e-01	-1.200973e-02	1.225706e+00	7.529841e+01	9.804439e+00	2.568864e+05	1.018137e+05	1.776117e-01	1.816671e-01	
9.035800e-01	-1.319056e-02	1.225593e+00	7.552061e+01	9.723792e+00	2.568665e+05	1.018005e+05	1.728033e-01	1.821897e-01	
8.940600e-01	-1.440916e-02	1.225491e+00	7.572244e+01	9.636703e+00	2.568487e+05	1.017885e+05	1.684655e-01	1.826606e-01	
8.841500e-01	-1.566269e-02	1.225399e+00	7.590485e+01	9.543512e+00	2.568326e+05	1.017778e+05	1.645704e-01	1.830821e-01	
8.738500e-01	-1.694956e-02	1.225317e+00	7.606909e+01	9.444565e+00	2.568182e+05	1.017682e+05	1.610786e-01	1.834576e-01	
8.631800e-01	-1.826569e-02	1.225244e+00	7.621650e+01	9.340207e+00	2.568053e+05	1.017597e+05	1.579780e-01	1.837904e-01	
8.521600e-01	-1.960709e-02	1.225180e+00	7.634788e+01	9.230816e+00	2.567941e+05	1.017522e+05	1.552503e-01	1.840825e-01	
8.407700e-01	-2.097463e-02	1.225124e+00	7.646430e+01	9.116687e+00	2.567841e+05	1.017456e+05	1.528627e-01	1.843368e-01	
8.290500e-01	-2.236196e-02	1.225075e+00	7.656676e+01	8.997940e+00	2.567756e+05	1.017400e+05	1.508098e-01	1.845557e-01	
8.170100e-01	-2.376642e-02	1.225035e+00	7.665590e+01	8.874733e+00	2.567685e+05	1.017352e+05	1.490792e-01	1.847409e-01	
8.046400e-01	-2.518764e-02	1.225001e+00	7.673263e+01	8.747263e+00	2.567626e+05	1.017312e+05	1.476417e-01	1.848947e-01	
7.919700e-01	-2.662063e-02	1.224974e+00	7.679767e+01	8.615677e+00	2.567579e+05	1.017281e+05	1.464988e-01	1.850189e-01	
7.790100e-01	-2.806277e-02	1.224954e+00	7.685100e+01	8.479961e+00	2.567544e+05	1.017257e+05	1.456334e-01	1.851135e-01	
7.657800e-01	-2.951034e-02	1.224940e+00	7.689283e+01	8.340052e+00	2.567520e+05	1.017241e+05	1.450459e-01	1.851792e-01	
7.522800e-01	-3.096181e-02	1.224933e+00	7.692269e+01	8.195543e+00	2.567507e+05	1.017232e+05	1.447159e-01	1.852147e-01	
7.385200e-01	-3.241453e-02	1.224931e+00	7.694216e+01	8.046242e+00	2.567504e+05	1.017230e+05	1.446351e-01	1.852238e-01	
7.245300e-01	-3.386377e-02	1.224935e+00	7.695169e+01	7.892426e+00	2.567511e+05	1.017234e+05	1.447992e-01	1.852079e-01	
7.103200e-01	-3.530689e-02	1.224945e+00	7.695154e+01	7.733618e+00	2.567529e+05	1.017246e+05	1.452100e-01	1.851673e-01	
6.958900e-01	-3.674225e-02	1.224961e+00	7.694208e+01	7.569749e+00	2.567557e+05	1.017264e+05	1.458632e-01	1.851031e-01	
6.812700e-01	-3.816515e-02	1.224982e+00	7.692225e+01	7.400345e+00	2.567595e+05	1.017288e+05	1.467548e-01	1.850128e-01	
6.664700e-01	-3.957289e-02	1.225009e+00	7.689237e+01	7.224856e+00	2.567644e+05	1.017319e+05	1.478929e-01	1.848969e-01	
6.515000e-01	-4.096270e-02	1.225042e+00	7.685178e+01	7.042954e+00	2.567701e+05	1.017357e+05	1.492650e-01	1.847540e-01	
6.363800e-01	-4.233084e-02	1.225081e+00	7.680108e+01	6.854128e+00	2.567770e+05	1.017402e+05	1.508923e-01	1.845854e-01	
6.211300e-01	-4.367359e-02	1.225125e+00	7.673942e+01	6.658012e+00	2.567848e+05	1.017453e+05	1.527617e-01	1.843892e-01	
6.057600e-01	-4.498807e-02	1.225176e+00	7.666714e+01	6.454014e+00	2.567939e+05	1.017512e+05	1.549060e-01	1.841661e-01	
5.902800e-01	-4.627133e-02	1.225233e+00	7.658304e+01	6.241617e+00	2.568039e+05	1.017578e+05	1.573095e-01	1.839132e-01	
5.747100e-01	-4.751951e-02	1.225297e+00	7.648737e+01	6.020198e+00	2.568153e+05	1.017653e+05	1.600138e-01	1.836311e-01	
5.590600e-01	-4.872956e-02	1.225368e+00	7.637862e+01	5.789434e+00	2.568278e+05	1.017735e+05	1.629970e-01	1.833164e-01	
5.433600e-01	-4.989684e-02	1.225447e+00	7.625657e+01	5.548579e+00	2.568417e+05	1.017826e+05	1.663141e-01	1.829683e-01	
5.276100e-01	-5.101898e-02	1.225533e+00	7.611875e+01	5.297007e+00	2.568569e+05	1.017926e+05	1.699508e-01	1.825812e-01	
5.118400e-01	-5.209138e-02	1.225628e+00	7.596473e+01	5.033870e+00	2.568737e+05	1.018037e+05	1.739655e-01	1.821539e-01	
4.960500e-01	-5.311154e-02	1.225731e+00	7.579207e+01	4.758677e+00	2.568918e+05	1.018157e+05	1.783404e-01	1.816808e-01	
4.802700e-01	-5.407492e-02	1.225844e+00	7.560106e+01	4.470754e+00	2.569116e+05	1.018289e+05	1.831300e-01	1.811627e-01	
4.645100e-01	-5.497836e-02	1.225967e+00	7.538921e+01	4.170157e+00	2.569333e+05	1.018433e+05	1.883646e-01	1.805938e-01	
4.487800e-01	-5.581860e-02	1.226101e+00	7.515548e+01	3.856035e+00	2.569568e+05	1.018589e+05	1.940453e-01	1.799720e-01	
4.331100e-01	-5.659142e-02	1.226247e+00	7.489857e+01	3.527864e+00	2.569825e+05	1.018760e+05	2.002528e-01	1.792940e-01	
4.175000e-01	-5.729417e-02	1.226405e+00	7.461574e+01	3.185498e+00	2.570103e+05	1.018945e+05	2.069872e-01	1.785539e-01	
4.019700e-01	-5.792324e-02	1.226578e+00	7.430510e+01	2.828249e+00	2.570407e+05	1.019147e+05	2.143178e-01	1.777473e-01	
3.865400e-01	-5.847521e-02	1.226765e+00	7.396391e+01	2.455986e+00	2.570736e+05	1.019366e+05	2.222599e-01	1.768681e-01	
3.712300e-01	-5.894684e-02	1.226968e+00	7.359052e+01	2.068266e+00	2.571092e+05	1.019602e+05	2.308614e-01	1.759127e-01	
3.560400e-01	-5.933562e-02	1.227188e+00	7.318210e+01	1.665348e+00	2.571480e+05	1.019859e+05	2.401999e-01	1.748749e-01	
3.409900e-01	-5.963848e-02	1.227426e+00	7.273434e+01	1.247342e+00	2.571899e+05	1.020137e+05	2.502871e-01	1.737451e-01	
3.261100e-01	-5.985254e-02	1.227683e+00	7.224358e+01	8.139099e-01	2.572352e+05	1.020437e+05	2.612023e-01	1.725148e-01	
3.114000e-01	-5.997565e-02	1.227961e+00	7.170494e+01	3.653001e-01	2.572840e+05	1.020762e+05	2.729959e-01	1.711734e-01	
2.968700e-01	-6.000550e-02	1.228261e+00	7.111487e+01	-9.848229e-02	2.573367e+05	1.021112e+05	2.857219e-01	1.697129e-01	
2.825500e-01	-5.994005e-02	1.228583e+00	7.046996e+01	-5.765287e-01	2.573933e+05	1.021488e+05	2.994112e-01	1.681263e-01	
2.684500e-01	-5.977766e-02	1.228931e+00	6.976525e+01	-1.068433e+00	2.574546e+05	1.021895e+05	3.141993e-01	1.664022e-01	
2.545700e-01	-5.951658e-02	1.229305e+00	6.899491e+01	-1.572963e+00	2.575202e+05	1.022332e+05	3.300733e-01	1.645281e-01	
2.409400e-01	-5.915586e-02	1.229708e+00	6.815374e+01	-2.089621e+00	2.575910e+05	1.022802e+05	3.471634e-01	1.624924e-01	
2.275700e-01	-5.869457e-02	1.230139e+00	6.723514e+01	-2.616458e+00	2.576668e+05	1.023307e+05	3.654869e-01	1.602806e-01	
2.144700e-01	-5.813197e-02	1.230602e+00	6.623210e+01	-3.151849e+00	2.577482e+05	1.023847e+05	3.851377e-01	1.578772e-01	
2.016600e-01	-5.746811e-02	1.231098e+00	6.513577e+01	-3.694359e+00	2.578354e+05	1.024427e+05	4.062045e-01	1.552624e-01	
1.891400e-01	-5.670228e-02	1.231628e+00	6.393814e+01	-4.241020e+00	2.579285e+05	1.025046e+05	4.287118e-01	1.524186e-01	
1.769300e-01	-5.583514e-02	1.232195e+00	6.262807e+01	-4.788699e+00	2.580282e+05	1.025709e+05	4.528123e-01	1.493204e-01	
1.650400e-01	-5.486709e-02	1.232800e+00	6.119238e+01	-5.333856e+00	2.581344e+05	1.026417e+05	4.785207e-01	1.459381e-01	
1.534900e-01	-5.379978e-02	1.233443e+00	5.961960e+01	-5.872757e+00	2.582474e+05	1.027170e+05	5.058961e-01	1.422464e-01	
1.422900e-01	-5.263443e-02	1.234127e+00	5.789659e+01	-6.398991e+00	2.583675e+05	1.027971e+05	5.350189e-01	1.382149e-01	
1.314400e-01	-5.137134e-02	1.234857e+00	5.600303e+01	-6.906255e+00	2.584956e+05	1.028826e+05	5.660678e-01	1.337968e-01	
1.209500e-01	-5.001187e-02	1.235627e+00	5.392320e+01	-7.387119e+00	2.586306e+05	1.029728e+05	5.988531e-01	1.289568e-01	
1.108500e-01	-4.856067e-02	1.236442e+00	5.164157e+01	-7.830844e+00	2.587739e+05	1.030683e+05	6.335536e-01	1.236581e-01	
1.011300e-01	-4.701715e-02	1.237304e+00	4.912810e+01	-8.221442e+00	2.589253e+05	1.031691e+05	6.701873e-01	1.178286e-01	
9.181000e-02	-4.538527e-02	1.238208e+00	4.634746e+01	-8.542076e+00	2.590841e+05	1.032749e+05	7.086486e-01	1.113836e-01	
8.290000e-02	-4.366791e-02	1.239155e+00	4.326441e+01	-8.771932e+00	2.592503e+05	1.033856e+05	7.488778e-01	1.042370e-01	
7.440000e-02	-4.186608e-02	1.240134e+00	3.983834e+01	-8.879815e+00	2.594222e+05	1.035002e+05	7.905425e-01	9.628560e-02	
6.633000e-02	-3.998514e-02	1.241140e+00	3.602356e+01	-8.829057e+00	2.595990e+05	1.036179e+05	8.333163e-01	8.741017e-02	
5.869000e-02	-3.802636e-02	1.242157e+00	3.177110e+01	-8.569267e+00	2.597778e+05	1.037368e+05	8.765164e-01	7.747516e-02	
5.149000e-02	-3.599338e-02	1.243162e+00	2.702505e+01	-8.030092e+00	2.599547e+05	1.038540e+05	9.191150e-01	6.631308e-02	
4.474000e-02	-3.389028e-02	1.244128e+00	2.170663e+01	-7.116868e+00	2.601252e+05	1.039662e+05	9.598961e-01	5.368103e-02	
3.844000e-02	-3.171811e-02	1.245000e+00	1.572080e+01	-5.699527e+00	2.602795e+05	1.040669e+05	9.964893e-01	3.926319e-02	
3.260000e-02	-2.948109e-02	1.245682e+00	9.002968e+00	-3.609318e+00	2.604009e+05	1.041453e+05	1.024969e+00	2.275950e-02	
2.723000e-02	-2.718420e-02	1.246065e+00	1.488847e+00	-6.008603e-01	2.604705e+05	1.041878e+05	1.040428e+00	3.765939e-03	
2.232000e-02	-2.482329e-02	1.246003e+00	-6.925393e+00	3.665053e+00	2.604641e+05	1.041758e+05	1.036071e+00	1.838040e-02	
1.790000e-02	-2.241365e-02	1.245102e+00	-1.617938e+01	9.647583e+00	2.603095e+05	1.040668e+05	9.964505e-01	4.422816e-02	
1.395000e-02	-1.994492e-02	1.243109e+00	-2.615917e+01	1.792401e+01	2.599678e+05	1.038253e+05	9.087008e-01	7.459958e-02	
1.049000e-02	-1.742916e-02	1.239259e+00	-3.643582e+01	2.927582e+01	2.592992e+05	1.033671e+05	7.421729e-01	1.103707e-01	
7.520000e-03	-1.486756e-02	1.232812e+00	-4.612037e+01	4.445999e+01	2.581754e+05	1.026044e+05	4.649687e-01	1.522287e-01	
5.040000e-03	-1.226032e-02	1.222498e+00	-5.360943e+01	6.401738e+01	2.563586e+05	1.014028e+05	2.827226e-02	2.004341e-01	
3.050000e-03	-9.605565e-03	1.207348e+00	-5.663718e+01	8.774134e+01	2.536674e+05	9.966029e+04	-6.050068e-01	2.544472e-01	
1.560000e-03	-6.917518e-03	1.186821e+00	-5.233531e+01	1.142656e+02	2.499874e+05	9.733314e+04	-1.450767e+00	3.125225e-01	
5.600000e-04	-4.173160e-03	1.159079e+00	-3.811232e+01	1.405271e+02	2.449000e+05	9.430186e+04	-2.552431e+00	3.722130e-01	
6.000000e-05	-1.375330e-03	1.133015e+00	-2.044942e+01	1.640919e+02	2.402865e+05	9.128776e+04	-3.647847e+00	4.345557e-01	
0.000000e+00	0.000000e+00	1.100199e+00	-1.196360e+00	1.765201e+02	2.340252e+05	8.794552e+04	-4.862524e+00	4.796203e-01	
6.000000e-05	1.375330e-03	1.091127e+00	2.221419e+01	1.805907e+02	2.324172e+05	8.689857e+04	-5.243019e+00	4.993999e-01	
5.600000e-04	4.173160e-03	1.088105e+00	4.887067e+01	1.836211e+02	2.321912e+05	8.624016e+04	-5.482303e+00	5.242396e-01	
1.560000e-03	6.917518e-03	1.064394e+00	7.939583e+01	1.777937e+02	2.275832e+05	8.390916e+04	-6.329462e+00	5.506577e-01	
3.050000e-03	9.605565e-03	1.057977e+00	1.058632e+02	1.646262e+02	2.263260e+05	8.328848e+04	-6.555037e+00	5.572560e-01	
5.040000e-03	1.226032e-02	1.064330e+00	1.250874e+02	1.483864e+02	2.275368e+05	8.393698e+04	-6.319354e+00	5.487724e-01	
7.520000e-03	1.486756e-02	1.074372e+00	1.380972e+02	1.317225e+02	2.294233e+05	8.498925e+04	-5.936924e+00	5.337728e-01	
1.049000e-02	1.742916e-02	1.085292e+00	1.463558e+02	1.160407e+02	2.314550e+05	8.615321e+04	-5.513905e+00	5.162373e-01	
1.395000e-02	1.994492e-02	1.096189e+00	1.511230e+02	1.019502e+02	2.334717e+05	8.732548e+04	-5.087866e+00	4.979677e-01	
1.790000e-02	2.241365e-02	1.106435e+00	1.534731e+02	8.964885e+01	2.353615e+05	8.843421e+04	-4.684919e+00	4.802241e-01	
2.232000e-02	2.482329e-02	1.115617e+00	1.542443e+02	7.898978e+01	2.370476e+05	8.943534e+04	-4.321075e+00	4.636671e-01	
2.723000e-02	2.718420e-02	1.123834e+00	1.539450e+02	6.983041e+01	2.385519e+05	9.033544e+04	-3.993953e+00	4.483857e-01	
3.260000e-02	2.948109e-02	1.131076e+00	1.529918e+02	6.192731e+01	2.398741e+05	9.113272e+04	-3.704194e+00	4.344784e-01	
3.844000e-02	3.171811e-02	1.137469e+00	1.516281e+02	5.509437e+01	2.410385e+05	9.183919e+04	-3.447440e+00	4.218518e-01	
4.474000e-02	3.389028e-02	1.143121e+00	1.500059e+02	4.915531e+01	2.420652e+05	9.246643e+04	-3.219481e+00	4.103502e-01	
5.149000e-02	3.599338e-02	1.148129e+00	1.482469e+02	4.395756e+01	2.429731e+05	9.302429e+04	-3.016737e+00	3.998775e-01	
5.869000e-02	3.802636e-02	1.152607e+00	1.464352e+02	3.938207e+01	2.437842e+05	9.352372e+04	-2.835230e+00	3.903406e-01	
6.633000e-02	3.998514e-02	1.156616e+00	1.446154e+02	3.533175e+01	2.445096e+05	9.397162e+04	-2.672451e+00	3.816340e-01	
7.440000e-02	4.186608e-02	1.160230e+00	1.428101e+02	3.172222e+01	2.451627e+05	9.437599e+04	-2.525487e+00	3.736376e-01	
8.290000e-02	4.366791e-02	1.163505e+00	1.410347e+02	2.848715e+01	2.457540e+05	9.474301e+04	-2.392103e+00	3.662584e-01	
9.181000e-02	4.538527e-02	1.166481e+00	1.392952e+02	2.557070e+01	2.462906e+05	9.507735e+04	-2.270592e+00	3.594114e-01	
1.011300e-01	4.701715e-02	1.169200e+00	1.375938e+02	2.292709e+01	2.467802e+05	9.538369e+04	-2.159260e+00	3.530208e-01	
1.108500e-01	4.856067e-02	1.171701e+00	1.359401e+02	2.051914e+01	2.472299e+05	9.566575e+04	-2.056749e+00	3.470475e-01	
1.209500e-01	5.001187e-02	1.174016e+00	1.343454e+02	1.831612e+01	2.476463e+05	9.592667e+04	-1.961921e+00	3.414692e-01	
1.314400e-01	5.137134e-02	1.176163e+00	1.328047e+02	1.629549e+01	2.480325e+05	9.616877e+04	-1.873936e+00	3.362357e-01	
1.422900e-01	5.263443e-02	1.178161e+00	1.313087e+02	1.443781e+01	2.483917e+05	9.639435e+04	-1.791954e+00	3.312920e-01	
1.534900e-01	5.379978e-02	1.180023e+00	1.298489e+02	1.272088e+01	2.487258e+05	9.660520e+04	-1.715323e+00	3.265901e-01	
1.650400e-01	5.486709e-02	1.181773e+00	1.284274e+02	1.112935e+01	2.490397e+05	9.680359e+04	-1.643222e+00	3.221108e-01	
1.769300e-01	5.583514e-02	1.183424e+00	1.270478e+02	9.651788e+00	2.493357e+05	9.699065e+04	-1.575240e+00	3.178467e-01	
1.891400e-01	5.670228e-02	1.184981e+00	1.257076e+02	8.277598e+00	2.496148e+05	9.716724e+04	-1.511060e+00	3.137772e-01	
2.016600e-01	5.746811e-02	1.186457e+00	1.244030e+02	6.998799e+00	2.498793e+05	9.733469e+04	-1.450205e+00	3.098797e-01	
2.144700e-01	5.813197e-02	1.187855e+00	1.231263e+02	5.805601e+00	2.501294e+05	9.749355e+04	-1.392469e+00	3.061254e-01	
2.275700e-01	5.869457e-02	1.189186e+00	1.218773e+02	4.692764e+00	2.503676e+05	9.764513e+04	-1.337379e+00	3.025033e-01	
2.409400e-01	5.915586e-02	1.190453e+00	1.206518e+02	3.652864e+00	2.505936e+05	9.778962e+04	-1.284870e+00	2.989966e-01	
2.545700e-01	5.951658e-02	1.191664e+00	1.194511e+02	2.680969e+00	2.508098e+05	9.792801e+04	-1.234574e+00	2.956004e-01	
2.684500e-01	5.977766e-02	1.192821e+00	1.182734e+02	1.771827e+00	2.510159e+05	9.806038e+04	-1.186467e+00	2.923057e-01	
2.825500e-01	5.994005e-02	1.193930e+00	1.171196e+02	9.220161e-01	2.512135e+05	9.818746e+04	-1.140281e+00	2.891089e-01	
2.968700e-01	6.000550e-02	1.194993e+00	1.159880e+02	1.263691e-01	2.514026e+05	9.830943e+04	-1.095952e+00	2.860018e-01	
3.114000e-01	5.997565e-02	1.196017e+00	1.148798e+02	-6.172222e-01	2.515847e+05	9.842692e+04	-1.053252e+00	2.829829e-01	
3.261100e-01	5.985254e-02	1.196999e+00	1.137922e+02	-1.311925e+00	2.517591e+05	9.853985e+04	-1.012212e+00	2.800429e-01	
3.409900e-01	5.963848e-02	1.197944e+00	1.127239e+02	-1.960962e+00	2.519268e+05	9.864867e+04	-9.726607e-01	2.771749e-01	
3.560400e-01	5.933562e-02	1.198855e+00	1.116754e+02	-2.567792e+00	2.520885e+05	9.875377e+04	-9.344674e-01	2.743773e-01	
3.712300e-01	5.894684e-02	1.199736e+00	1.106508e+02	-3.135293e+00	2.522448e+05	9.885521e+04	-8.975974e-01	2.716579e-01	
3.865400e-01	5.847521e-02	1.200586e+00	1.096493e+02	-3.664927e+00	2.523955e+05	9.895312e+04	-8.620166e-01	2.690128e-01	
4.019700e-01	5.792324e-02	1.201407e+00	1.086683e+02	-4.159481e+00	2.525412e+05	9.904776e+04	-8.276195e-01	2.664339e-01	
4.175000e-01	5.729417e-02	1.202202e+00	1.077087e+02	-4.620792e+00	2.526823e+05	9.913937e+04	-7.943251e-01	2.639212e-01	
4.331100e-01	5.659142e-02	1.202970e+00	1.067684e+02	-5.050677e+00	2.528186e+05	9.922796e+04	-7.621309e-01	2.614685e-01	
4.487800e-01	5.581860e-02	1.203715e+00	1.058473e+02	-5.451213e+00	2.529506e+05	9.931378e+04	-7.309405e-01	2.590744e-01	
4.645100e-01	5.497836e-02	1.204435e+00	1.049445e+02	-5.825082e+00	2.530783e+05	9.939687e+04	-7.007435e-01	2.567352e-01	
4.802700e-01	5.407492e-02	1.205135e+00	1.040618e+02	-6.173018e+00	2.532024e+05	9.947752e+04	-6.714328e-01	2.544543e-01	
4.960500e-01	5.311154e-02	1.205811e+00	1.031955e+02	-6.496393e+00	2.533222e+05	9.955556e+04	-6.430683e-01	2.522222e-01	
5.118400e-01	5.209138e-02	1.206467e+00	1.023433e+02	-6.796596e+00	2.534384e+05	9.963135e+04	-6.155248e-01	2.500319e-01	
5.276100e-01	5.101898e-02	1.207102e+00	1.015039e+02	-7.076169e+00	2.535507e+05	9.970491e+04	-5.887913e-01	2.478800e-01	
5.433600e-01	4.989684e-02	1.207718e+00	1.006779e+02	-7.337632e+00	2.536595e+05	9.977635e+04	-5.628268e-01	2.457673e-01	
5.590600e-01	4.872956e-02	1.208318e+00	9.986856e+01	-7.583004e+00	2.537656e+05	9.984589e+04	-5.375567e-01	2.437010e-01	
5.747100e-01	4.751951e-02	1.208903e+00	9.907733e+01	-7.811625e+00	2.538691e+05	9.991355e+04	-5.129640e-01	2.416841e-01	
5.902800e-01	4.627133e-02	1.209470e+00	9.829982e+01	-8.023994e+00	2.539694e+05	9.997926e+04	-4.890843e-01	2.397056e-01	
6.057600e-01	4.498807e-02	1.210024e+00	9.753462e+01	-8.222274e+00	2.540673e+05	1.000434e+05	-4.657814e-01	2.377614e-01	
6.211300e-01	4.367359e-02	1.210564e+00	9.678266e+01	-8.408015e+00	2.541628e+05	1.001059e+05	-4.430557e-01	2.358536e-01	
6.363800e-01	4.233084e-02	1.211090e+00	9.604286e+01	-8.582373e+00	2.542558e+05	1.001669e+05	-4.208990e-01	2.339795e-01	
6.515000e-01	4.096270e-02	1.211605e+00	9.531398e+01	-8.745676e+00	2.543469e+05	1.002265e+05	-3.992319e-01	2.321354e-01	
6.664700e-01	3.957289e-02	1.212109e+00	9.459518e+01	-8.898705e+00	2.544359e+05	1.002848e+05	-3.780327e-01	2.303190e-01	
6.812700e-01	3.816515e-02	1.212601e+00	9.388538e+01	-9.042500e+00	2.545230e+05	1.003419e+05	-3.572920e-01	2.285277e-01	
6.958900e-01	3.674225e-02	1.213084e+00	9.318378e+01	-9.177624e+00	2.546084e+05	1.003979e+05	-3.369443e-01	2.267591e-01	
7.103200e-01	3.530689e-02	1.213558e+00	9.248961e+01	-9.304946e+00	2.546921e+05	1.004528e+05	-3.169878e-01	2.250113e-01	
7.245300e-01	3.386377e-02	1.214024e+00	9.180165e+01	-9.424725e+00	2.547744e+05	1.005068e+05	-2.973705e-01	2.232811e-01	
