TITLE = "Visualization of the volumetric solution"
VARIABLES = "x","y","Conservative_1","Conservative_2","Conservative_3","Conservative_4","Conservative_5","Pressure","Pressure_Coefficient","Mach", "Temperature", "Laminar_Viscosity", "Skin_Friction_Coefficient", "Heat_Transfer", "Y_Plus", "Eddy_Viscosity"
ZONE NODES= 14290, ELEMENTS= 14000, DATAPACKING=POINT, ZONETYPE=FEQUADRILATERAL
5.025000e+01	6.145997e-08	1.317725e+01	8.845977e+02	1.555501e+02	2.763253e+06	4.092738e-06	1.093057e+06	8.729321e-04	2.000141e-01	2.881520e+02	1.796187e-05	0.000000e+00	0.000000e+00	0.000000e+00	3.791954e-06	
4.250927e+01	6.145997e-08	1.317727e+01	8.846963e+02	1.549283e+02	2.763258e+06	4.092597e-06	1.093060e+06	9.448022e-04	2.000114e-01	2.881522e+02	1.796188e-05	0.000000e+00	0.000000e+00	0.000000e+00	3.791473e-06	
3.598386e+01	6.012099e-08	1.317729e+01	8.847199e+02	1.543151e+02	2.763257e+06	4.092294e-06	1.093062e+06	1.014945e-03	1.999928e-01	2.881524e+02	1.796189e-05	0.000000e+00	0.000000e+00	0.000000e+00	3.790423e-06	
3.048295e+01	5.658512e-08	1.317731e+01	8.847173e+02	1.537065e+02	2.763256e+06	4.092022e-06	1.093064e+06	1.096989e-03	1.999686e-01	2.881526e+02	1.796190e-05	0.000000e+00	0.000000e+00	0.000000e+00	3.789484e-06	
2.584570e+01	5.188899e-08	1.317734e+01	8.847168e+02	1.530672e+02	2.763258e+06	4.091808e-06	1.093068e+06	1.222671e-03	1.999436e-01	2.881529e+02	1.796191e-05	0.000000e+00	0.000000e+00	0.000000e+00	3.788759e-06	
2.193651e+01	4.671114e-08	1.317738e+01	8.847178e+02	1.523724e+02	2.763264e+06	4.091636e-06	1.093073e+06	1.406182e-03	1.999166e-01	2.881533e+02	1.796193e-05	0.000000e+00	0.000000e+00	0.000000e+00	3.788192e-06	
1.864107e+01	4.147993e-08	1.317744e+01	8.847173e+02	1.516099e+02	2.763270e+06	4.091481e-06	1.093079e+06	1.614514e-03	1.998868e-01	2.881538e+02	1.796196e-05	0.000000e+00	0.000000e+00	0.000000e+00	3.787692e-06	
1.586303e+01	3.645440e-08	1.317751e+01	8.847121e+02	1.507500e+02	2.763281e+06	4.091352e-06	1.093088e+06	1.905285e-03	1.998521e-01	2.881545e+02	1.796199e-05	0.000000e+00	0.000000e+00	0.000000e+00	3.787301e-06	
1.352114e+01	3.178040e-08	1.317758e+01	8.846976e+02	1.497858e+02	2.763292e+06	4.091218e-06	1.093097e+06	2.211982e-03	1.998115e-01	2.881552e+02	1.796203e-05	0.000000e+00	0.000000e+00	0.000000e+00	3.786891e-06	
1.154694e+01	2.752933e-08	1.317770e+01	8.846691e+02	1.486762e+02	2.763310e+06	4.091087e-06	1.093110e+06	2.651740e-03	1.997621e-01	2.881563e+02	1.796207e-05	0.000000e+00	0.000000e+00	0.000000e+00	3.786523e-06	
9.882688e+00	2.372474e-08	1.317780e+01	8.846214e+02	1.474261e+02	2.763325e+06	4.090869e-06	1.093123e+06	3.090498e-03	1.997037e-01	2.881574e+02	1.796213e-05	0.000000e+00	0.000000e+00	0.000000e+00	3.785844e-06	
8.479730e+00	2.036047e-08	1.317796e+01	8.845548e+02	1.459745e+02	2.763352e+06	4.090557e-06	1.093142e+06	3.740669e-03	1.996332e-01	2.881589e+02	1.796220e-05	0.000000e+00	0.000000e+00	0.000000e+00	3.784885e-06	
7.297041e+00	1.741282e-08	1.317811e+01	8.844719e+02	1.443512e+02	2.763373e+06	4.090003e-06	1.093160e+06	4.344709e-03	1.995537e-01	2.881604e+02	1.796228e-05	0.000000e+00	0.000000e+00	0.000000e+00	3.783057e-06	
6.300037e+00	1.484867e-08	1.317835e+01	8.843831e+02	1.424576e+02	2.763418e+06	4.089321e-06	1.093189e+06	5.314920e-03	1.994622e-01	2.881627e+02	1.796239e-05	0.000000e+00	0.000000e+00	0.000000e+00	3.780867e-06	
5.459565e+00	1.263075e-08	1.317856e+01	8.842975e+02	1.403825e+02	2.763451e+06	4.088513e-06	1.093214e+06	6.145630e-03	1.993667e-01	2.881647e+02	1.796249e-05	0.000000e+00	0.000000e+00	0.000000e+00	3.778201e-06	
4.751049e+00	1.072100e-08	1.317891e+01	8.842329e+02	1.379605e+02	2.763524e+06	4.088023e-06	1.093255e+06	7.537244e-03	1.992621e-01	2.881678e+02	1.796263e-05	0.000000e+00	0.000000e+00	0.000000e+00	3.776785e-06	
4.153772e+00	9.082628e-09	1.317923e+01	8.841683e+02	1.353562e+02	2.763583e+06	4.087405e-06	1.093292e+06	8.773791e-03	1.991536e-01	2.881707e+02	1.796277e-05	0.000000e+00	0.000000e+00	0.000000e+00	3.774877e-06	
3.650269e+00	7.681263e-09	1.317967e+01	8.841068e+02	1.323656e+02	2.763683e+06	4.086680e-06	1.093346e+06	1.059307e-02	1.990322e-01	2.881752e+02	1.796299e-05	0.000000e+00	0.000000e+00	0.000000e+00	3.772697e-06	
3.225817e+00	6.485544e-09	1.318012e+01	8.839674e+02	1.291481e+02	2.763779e+06	4.085532e-06	1.093401e+06	1.246477e-02	1.988882e-01	2.881799e+02	1.796322e-05	0.000000e+00	0.000000e+00	0.000000e+00	3.769037e-06	
2.868005e+00	5.467344e-09	1.318071e+01	8.837058e+02	1.255601e+02	2.763903e+06	4.084221e-06	1.093472e+06	1.484641e-02	1.987058e-01	2.881858e+02	1.796351e-05	0.000000e+00	0.000000e+00	0.000000e+00	3.764920e-06	
2.566371e+00	4.601746e-09	1.318136e+01	8.832313e+02	1.217088e+02	2.764030e+06	4.083152e-06	1.093551e+06	1.749633e-02	1.984703e-01	2.881922e+02	1.796381e-05	0.000000e+00	0.000000e+00	0.000000e+00	3.761713e-06	
2.312094e+00	3.866891e-09	1.318211e+01	8.825060e+02	1.175242e+02	2.764165e+06	4.083311e-06	1.093640e+06	2.050374e-02	1.981715e-01	2.881994e+02	1.796417e-05	0.000000e+00	0.000000e+00	0.000000e+00	3.762866e-06	
2.097739e+00	3.243745e-09	1.318312e+01	8.814383e+02	1.130069e+02	2.764352e+06	4.085711e-06	1.093760e+06	2.455214e-02	1.977871e-01	2.882090e+02	1.796463e-05	0.000000e+00	0.000000e+00	0.000000e+00	3.772075e-06	
1.917038e+00	2.715830e-09	1.318398e+01	8.800630e+02	1.084386e+02	2.764486e+06	4.090688e-06	1.093867e+06	2.813978e-02	1.973405e-01	2.882182e+02	1.796507e-05	0.000000e+00	0.000000e+00	0.000000e+00	3.790171e-06	
1.764708e+00	2.268948e-09	1.318545e+01	8.783557e+02	1.033808e+02	2.764764e+06	4.105111e-06	1.094041e+06	3.401464e-02	1.968020e-01	2.882320e+02	1.796574e-05	0.000000e+00	0.000000e+00	0.000000e+00	3.842198e-06	
1.636294e+00	1.890912e-09	1.318664e+01	8.762664e+02	9.868587e+01	2.764955e+06	4.157875e-06	1.094188e+06	3.897524e-02	1.961986e-01	2.882448e+02	1.796636e-05	0.000000e+00	0.000000e+00	0.000000e+00	4.033117e-06	
1.528042e+00	1.571293e-09	1.318824e+01	8.740210e+02	9.366724e+01	2.765242e+06	4.395230e-06	1.094379e+06	4.539511e-02	1.955511e-01	2.882600e+02	1.796710e-05	0.000000e+00	0.000000e+00	0.000000e+00	4.970140e-06	
1.436785e+00	1.301192e-09	1.319012e+01	8.714132e+02	8.870577e+01	2.765595e+06	5.466586e-06	1.094605e+06	5.299982e-02	1.948255e-01	2.882784e+02	1.796799e-05	0.000000e+00	0.000000e+00	0.000000e+00	1.101640e-05	
1.359856e+00	1.073025e-09	1.319187e+01	8.686335e+02	8.412058e+01	2.765900e+06	9.738981e-06	1.094814e+06	6.004047e-02	1.940780e-01	2.882952e+02	1.796880e-05	0.000000e+00	0.000000e+00	0.000000e+00	6.481543e-05	
1.295005e+00	8.803451e-10	1.319462e+01	8.653506e+02	7.928286e+01	2.766451e+06	2.186195e-05	1.095135e+06	7.085541e-02	1.932017e-01	2.883195e+02	1.796998e-05	0.000000e+00	0.000000e+00	0.000000e+00	2.652174e-04	
1.240335e+00	7.176781e-10	1.319654e+01	8.608427e+02	7.555965e+01	2.766744e+06	4.740498e-05	1.095380e+06	7.912145e-02	1.920941e-01	2.883424e+02	1.797108e-05	0.000000e+00	0.000000e+00	0.000000e+00	6.197440e-04	
1.194249e+00	5.803809e-10	1.319840e+01	8.538276e+02	7.152598e+01	2.767018e+06	8.975133e-05	1.095682e+06	8.931430e-02	1.904240e-01	2.883813e+02	1.797297e-05	0.000000e+00	0.000000e+00	0.000000e+00	1.182051e-03	
1.155399e+00	4.645192e-10	1.319913e+01	8.412491e+02	6.739655e+01	2.767057e+06	1.464650e-04	1.096031e+06	1.010414e-01	1.875279e-01	2.884569e+02	1.797663e-05	0.000000e+00	0.000000e+00	0.000000e+00	1.931068e-03	
1.122648e+00	3.667626e-10	1.319882e+01	8.243855e+02	6.347684e+01	2.766803e+06	2.101808e-04	1.096362e+06	1.122086e-01	1.836984e-01	2.885510e+02	1.798118e-05	0.000000e+00	0.000000e+00	0.000000e+00	2.771769e-03	
1.095039e+00	2.842932e-10	1.319711e+01	7.986545e+02	5.911044e+01	2.766222e+06	2.719326e-04	1.096769e+06	1.259270e-01	1.779034e-01	2.886955e+02	1.798817e-05	0.000000e+00	0.000000e+00	0.000000e+00	3.586034e-03	
1.071765e+00	2.147285e-10	1.319586e+01	7.776096e+02	5.515349e+01	2.765978e+06	3.285603e-04	1.097181e+06	1.397854e-01	1.731527e-01	2.888311e+02	1.799473e-05	0.000000e+00	0.000000e+00	0.000000e+00	4.332656e-03	
1.052145e+00	1.560550e-10	1.319377e+01	7.550588e+02	5.138294e+01	2.765754e+06	3.735513e-04	1.097619e+06	1.545666e-01	1.680776e-01	2.889925e+02	1.800254e-05	0.000000e+00	0.000000e+00	0.000000e+00	4.925422e-03	
1.035605e+00	1.065715e-10	1.319097e+01	7.310839e+02	4.747627e+01	2.765389e+06	3.950248e-04	1.098017e+06	1.679803e-01	1.626949e-01	2.891585e+02	1.801057e-05	0.000000e+00	0.000000e+00	0.000000e+00	5.207689e-03	
1.021662e+00	6.484151e-11	1.318985e+01	7.009796e+02	4.178738e+01	2.764790e+06	3.775049e-04	1.098439e+06	1.821744e-01	1.559207e-01	2.892942e+02	1.801712e-05	0.000000e+00	0.000000e+00	0.000000e+00	4.976469e-03	
1.009908e+00	2.965224e-11	1.319912e+01	6.579421e+02	3.182700e+01	2.765377e+06	3.011801e-04	1.099576e+06	2.204928e-01	1.461322e-01	2.893903e+02	1.802177e-05	0.000000e+00	0.000000e+00	0.000000e+00	3.973175e-03	
1.000000e+00	-2.006297e-14	1.315237e+01	0.000000e+00	0.000000e+00	2.749286e+06	1.000000e-10	1.099714e+06	2.251457e-01	0.000000e+00	2.904553e+02	1.807319e-05	1.993113e-04	4.468660e-07	4.910602e+03	1.416239e-24	
9.900915e-01	-1.397070e-03	1.310135e+01	0.000000e+00	0.000000e+00	2.747865e+06	1.000000e-10	1.099146e+06	2.059978e-01	0.000000e+00	2.914357e+02	1.812044e-05	2.779748e-03	-5.201437e-05	1.844166e-01	1.383518e-24	
9.796764e-01	-2.847068e-03	1.312549e+01	0.000000e+00	0.000000e+00	2.746691e+06	1.000000e-10	1.098676e+06	1.901822e-01	0.000000e+00	2.907754e+02	1.808863e-05	1.797024e-03	-5.849585e-06	1.486747e-01	1.401104e-24	
9.687423e-01	-4.349366e-03	1.312547e+01	0.000000e+00	0.000000e+00	2.745496e+06	1.000000e-10	1.098198e+06	1.740777e-01	0.000000e+00	2.906495e+02	1.808255e-05	1.646413e-03	-5.695400e-07	1.423557e-01	1.402504e-24	
9.572780e-01	-5.903024e-03	1.312203e+01	0.000000e+00	0.000000e+00	2.744577e+06	1.000000e-10	1.097831e+06	1.616910e-01	0.000000e+00	2.906283e+02	1.808153e-05	1.647890e-03	1.199295e-05	1.424089e-01	1.401273e-24	
9.452742e-01	-7.506773e-03	1.311918e+01	0.000000e+00	0.000000e+00	2.743879e+06	1.000000e-10	1.097552e+06	1.522877e-01	0.000000e+00	2.906175e+02	1.808101e-05	1.683354e-03	1.009758e-05	1.439217e-01	1.400178e-24	
9.327234e-01	-9.158995e-03	1.311654e+01	0.000000e+00	0.000000e+00	2.743333e+06	1.000000e-10	1.097333e+06	1.449334e-01	0.000000e+00	2.906182e+02	1.808104e-05	1.725973e-03	9.898163e-06	1.457173e-01	1.399044e-24	
9.196202e-01	-1.085771e-02	1.311446e+01	0.000000e+00	0.000000e+00	2.742893e+06	1.000000e-10	1.097157e+06	1.389971e-01	0.000000e+00	2.906176e+02	1.808102e-05	1.761560e-03	9.530867e-06	1.472004e-01	1.398163e-24	
9.059613e-01	-1.260056e-02	1.311252e+01	0.000000e+00	0.000000e+00	2.742526e+06	1.000000e-10	1.097010e+06	1.340453e-01	0.000000e+00	2.906217e+02	1.808121e-05	1.787560e-03	1.210465e-05	1.482702e-01	1.397291e-24	
8.917464e-01	-1.438481e-02	1.311113e+01	0.000000e+00	0.000000e+00	2.742218e+06	1.000000e-10	1.096887e+06	1.299041e-01	0.000000e+00	2.906201e+02	1.808113e-05	1.809831e-03	1.219744e-05	1.491836e-01	1.396713e-24	
8.769775e-01	-1.620730e-02	1.310991e+01	0.000000e+00	0.000000e+00	2.741965e+06	1.000000e-10	1.096786e+06	1.264877e-01	0.000000e+00	2.906201e+02	1.808114e-05	1.830645e-03	1.260070e-05	1.500320e-01	1.396194e-24	
8.616600e-01	-1.806450e-02	1.310899e+01	0.000000e+00	0.000000e+00	2.741757e+06	1.000000e-10	1.096703e+06	1.236903e-01	0.000000e+00	2.906185e+02	1.808106e-05	1.848021e-03	1.298063e-05	1.507378e-01	1.395820e-24	
8.458022e-01	-1.995243e-02	1.310822e+01	0.000000e+00	0.000000e+00	2.741594e+06	1.000000e-10	1.096638e+06	1.214948e-01	0.000000e+00	2.906182e+02	1.808105e-05	1.863571e-03	1.357431e-05	1.513663e-01	1.395498e-24	
8.294158e-01	-2.186671e-02	1.310767e+01	0.000000e+00	0.000000e+00	2.741473e+06	1.000000e-10	1.096589e+06	1.198621e-01	0.000000e+00	2.906176e+02	1.808102e-05	1.877481e-03	1.402113e-05	1.519272e-01	1.395269e-24	
8.125161e-01	-2.380253e-02	1.310726e+01	0.000000e+00	0.000000e+00	2.741390e+06	1.000000e-10	1.096556e+06	1.187369e-01	0.000000e+00	2.906180e+02	1.808103e-05	1.890574e-03	1.453937e-05	1.524535e-01	1.395088e-24	
7.951217e-01	-2.575469e-02	1.310697e+01	0.000000e+00	0.000000e+00	2.741339e+06	1.000000e-10	1.096536e+06	1.180549e-01	0.000000e+00	2.906190e+02	1.808108e-05	1.902619e-03	1.500312e-05	1.529363e-01	1.394956e-24	
7.772549e-01	-2.771752e-02	1.310678e+01	0.000000e+00	0.000000e+00	2.741321e+06	1.000000e-10	1.096528e+06	1.178071e-01	0.000000e+00	2.906213e+02	1.808119e-05	1.914180e-03	1.560395e-05	1.533982e-01	1.394848e-24	
7.589416e-01	-2.968498e-02	1.310673e+01	0.000000e+00	0.000000e+00	2.741333e+06	1.000000e-10	1.096533e+06	1.179696e-01	0.000000e+00	2.906236e+02	1.808131e-05	1.924903e-03	1.620253e-05	1.538259e-01	1.394801e-24	
7.402113e-01	-3.165061e-02	1.310682e+01	0.000000e+00	0.000000e+00	2.741376e+06	1.000000e-10	1.096550e+06	1.185566e-01	0.000000e+00	2.906263e+02	1.808144e-05	1.934955e-03	1.664157e-05	1.542265e-01	1.394808e-24	
7.210966e-01	-3.360759e-02	1.310699e+01	0.000000e+00	0.000000e+00	2.741448e+06	1.000000e-10	1.096579e+06	1.195216e-01	0.000000e+00	2.906302e+02	1.808162e-05	1.944265e-03	1.740821e-05	1.545965e-01	1.394837e-24	
7.016337e-01	-3.554873e-02	1.310727e+01	0.000000e+00	0.000000e+00	2.741548e+06	1.000000e-10	1.096619e+06	1.208689e-01	0.000000e+00	2.906344e+02	1.808183e-05	1.953183e-03	1.744003e-05	1.549506e-01	1.394912e-24	
6.818617e-01	-3.746650e-02	1.310767e+01	0.000000e+00	0.000000e+00	2.741677e+06	1.000000e-10	1.096671e+06	1.226171e-01	0.000000e+00	2.906393e+02	1.808206e-05	1.961673e-03	1.833236e-05	1.552873e-01	1.395027e-24	
6.618224e-01	-3.935312e-02	1.310821e+01	0.000000e+00	0.000000e+00	2.741836e+06	1.000000e-10	1.096734e+06	1.247532e-01	0.000000e+00	2.906443e+02	1.808230e-05	1.969984e-03	1.871024e-05	1.556170e-01	1.395199e-24	
6.415602e-01	-4.120057e-02	1.310879e+01	0.000000e+00	0.000000e+00	2.742017e+06	1.000000e-10	1.096807e+06	1.271980e-01	0.000000e+00	2.906506e+02	1.808261e-05	1.978243e-03	1.982115e-05	1.559437e-01	1.395377e-24	
6.211213e-01	-4.300065e-02	1.310951e+01	0.000000e+00	0.000000e+00	2.742224e+06	1.000000e-10	1.096890e+06	1.299883e-01	0.000000e+00	2.906566e+02	1.808290e-05	1.986483e-03	1.889899e-05	1.562700e-01	1.395616e-24	
6.005538e-01	-4.474509e-02	1.311031e+01	0.000000e+00	0.000000e+00	2.742460e+06	1.000000e-10	1.096984e+06	1.331667e-01	0.000000e+00	2.906638e+02	1.808324e-05	1.994522e-03	2.017432e-05	1.565876e-01	1.395878e-24	
5.799069e-01	-4.642560e-02	1.311130e+01	0.000000e+00	0.000000e+00	2.742730e+06	1.000000e-10	1.097092e+06	1.368044e-01	0.000000e+00	2.906705e+02	1.808357e-05	2.002535e-03	2.038504e-05	1.569049e-01	1.396222e-24	
5.592307e-01	-4.803399e-02	1.311234e+01	0.000000e+00	0.000000e+00	2.743039e+06	1.000000e-10	1.097216e+06	1.409665e-01	0.000000e+00	2.906800e+02	1.808403e-05	2.010079e-03	2.183365e-05	1.572025e-01	1.396562e-24	
5.385754e-01	-4.956225e-02	1.311360e+01	0.000000e+00	0.000000e+00	2.743391e+06	1.000000e-10	1.097356e+06	1.457043e-01	0.000000e+00	2.906894e+02	1.808448e-05	2.017113e-03	2.083585e-05	1.574810e-01	1.396993e-24	
5.179913e-01	-5.100267e-02	1.311497e+01	0.000000e+00	0.000000e+00	2.743783e+06	1.000000e-10	1.097513e+06	1.509951e-01	0.000000e+00	2.907006e+02	1.808502e-05	2.023386e-03	2.247370e-05	1.577292e-01	1.397452e-24	
4.975276e-01	-5.234796e-02	1.311651e+01	0.000000e+00	0.000000e+00	2.744196e+06	1.000000e-10	1.097678e+06	1.565573e-01	0.000000e+00	2.907103e+02	1.808549e-05	2.029142e-03	2.259010e-05	1.579585e-01	1.397998e-24	
4.772328e-01	-5.359135e-02	1.311807e+01	0.000000e+00	0.000000e+00	2.744638e+06	1.000000e-10	1.097855e+06	1.625129e-01	0.000000e+00	2.907224e+02	1.808607e-05	2.034907e-03	2.456020e-05	1.581871e-01	1.398529e-24	
4.571535e-01	-5.472669e-02	1.312004e+01	0.000000e+00	0.000000e+00	2.745149e+06	1.000000e-10	1.098059e+06	1.693940e-01	0.000000e+00	2.907329e+02	1.808657e-05	2.040101e-03	2.162629e-05	1.583963e-01	1.399252e-24	
4.373345e-01	-5.574856e-02	1.312211e+01	0.000000e+00	0.000000e+00	2.745716e+06	1.000000e-10	1.098286e+06	1.770416e-01	0.000000e+00	2.907472e+02	1.808726e-05	2.044253e-03	2.388917e-05	1.585638e-01	1.399974e-24	
4.178183e-01	-5.665235e-02	1.312455e+01	0.000000e+00	0.000000e+00	2.746350e+06	1.000000e-10	1.098540e+06	1.855795e-01	0.000000e+00	2.907602e+02	1.808789e-05	2.047145e-03	2.379537e-05	1.586852e-01	1.400871e-24	
3.986445e-01	-5.743434e-02	1.312707e+01	0.000000e+00	0.000000e+00	2.747043e+06	1.000000e-10	1.098817e+06	1.949238e-01	0.000000e+00	2.907779e+02	1.808874e-05	2.048535e-03	2.617626e-05	1.587468e-01	1.401746e-24	
3.798501e-01	-5.809174e-02	1.312985e+01	0.000000e+00	0.000000e+00	2.747756e+06	1.000000e-10	1.099102e+06	2.045333e-01	0.000000e+00	2.907917e+02	1.808941e-05	2.048782e-03	2.355973e-05	1.587673e-01	1.402779e-24	
3.614685e-01	-5.862275e-02	1.313274e+01	0.000000e+00	0.000000e+00	2.748537e+06	1.000000e-10	1.099415e+06	2.150595e-01	0.000000e+00	2.908103e+02	1.809031e-05	2.048274e-03	2.611061e-05	1.587573e-01	1.403807e-24	
3.435301e-01	-5.902656e-02	1.313617e+01	0.000000e+00	0.000000e+00	2.749406e+06	1.000000e-10	1.099763e+06	2.267730e-01	0.000000e+00	2.908264e+02	1.809108e-05	2.046043e-03	2.574578e-05	1.586847e-01	1.405090e-24	
3.260616e-01	-5.930334e-02	1.313974e+01	0.000000e+00	0.000000e+00	2.750364e+06	1.000000e-10	1.100146e+06	2.396754e-01	0.000000e+00	2.908485e+02	1.809215e-05	2.040868e-03	2.875098e-05	1.584961e-01	1.406373e-24	
3.090864e-01	-5.945423e-02	1.314395e+01	0.000000e+00	0.000000e+00	2.751394e+06	1.000000e-10	1.100558e+06	2.535615e-01	0.000000e+00	2.908644e+02	1.809292e-05	2.033710e-03	2.361460e-05	1.582365e-01	1.407993e-24	
2.926242e-01	-5.948129e-02	1.314789e+01	0.000000e+00	0.000000e+00	2.752430e+06	1.000000e-10	1.100972e+06	2.675140e-01	0.000000e+00	2.908866e+02	1.809398e-05	2.028069e-03	2.661665e-05	1.580313e-01	1.409435e-24	
2.766912e-01	-5.938744e-02	1.315250e+01	0.000000e+00	0.000000e+00	2.753577e+06	1.000000e-10	1.101431e+06	2.829719e-01	0.000000e+00	2.909058e+02	1.809491e-05	2.020337e-03	2.602021e-05	1.577494e-01	1.411197e-24	
2.613001e-01	-5.917639e-02	1.315723e+01	0.000000e+00	0.000000e+00	2.754829e+06	1.000000e-10	1.101932e+06	2.998509e-01	0.000000e+00	2.909335e+02	1.809624e-05	2.007868e-03	2.892919e-05	1.572785e-01	1.412915e-24	
2.464604e-01	-5.885255e-02	1.316270e+01	0.000000e+00	0.000000e+00	2.756182e+06	1.000000e-10	1.102473e+06	3.180809e-01	0.000000e+00	2.909553e+02	1.809730e-05	1.991837e-03	2.506098e-05	1.566728e-01	1.415019e-24	
2.321784e-01	-5.842094e-02	1.316785e+01	0.000000e+00	0.000000e+00	2.757525e+06	1.000000e-10	1.103010e+06	3.361778e-01	0.000000e+00	2.909834e+02	1.809865e-05	1.974550e-03	2.792398e-05	1.560103e-01	1.416914e-24	
2.184572e-01	-5.788708e-02	1.317375e+01	0.000000e+00	0.000000e+00	2.758968e+06	1.000000e-10	1.103587e+06	3.556311e-01	0.000000e+00	2.910053e+02	1.809971e-05	1.955354e-03	2.704302e-05	1.552758e-01	1.419206e-24	
2.052973e-01	-5.725691e-02	1.317983e+01	0.000000e+00	0.000000e+00	2.760546e+06	1.000000e-10	1.104218e+06	3.768940e-01	0.000000e+00	2.910374e+02	1.810125e-05	1.932478e-03	2.975936e-05	1.543873e-01	1.421465e-24	
1.926964e-01	-5.653666e-02	1.318685e+01	0.000000e+00	0.000000e+00	2.762213e+06	1.000000e-10	1.104885e+06	3.993605e-01	0.000000e+00	2.910581e+02	1.810225e-05	1.904649e-03	2.399235e-05	1.533039e-01	1.424259e-24	
1.806499e-01	-5.573279e-02	1.319320e+01	0.000000e+00	0.000000e+00	2.763848e+06	1.000000e-10	1.105539e+06	4.213942e-01	0.000000e+00	2.910902e+02	1.810380e-05	1.875216e-03	2.643850e-05	1.521384e-01	1.426639e-24	
1.691512e-01	-5.485187e-02	1.320038e+01	0.000000e+00	0.000000e+00	2.765615e+06	1.000000e-10	1.106246e+06	4.451969e-01	0.000000e+00	2.911178e+02	1.810512e-05	1.842869e-03	2.530264e-05	1.508505e-01	1.429433e-24	
1.581914e-01	-5.390049e-02	1.320763e+01	0.000000e+00	0.000000e+00	2.767520e+06	1.000000e-10	1.107008e+06	4.708818e-01	0.000000e+00	2.911585e+02	1.810709e-05	1.805515e-03	2.724952e-05	1.493387e-01	1.432109e-24	
1.477603e-01	-5.288522e-02	1.321536e+01	0.000000e+00	0.000000e+00	2.769412e+06	1.000000e-10	1.107765e+06	4.963784e-01	0.000000e+00	2.911872e+02	1.810847e-05	1.763323e-03	2.339723e-05	1.476153e-01	1.435134e-24	
