TITLE = "Visualization of the volumetric solution"
VARIABLES = "x","y","Conservative_1","Conservative_2","Conservative_3","Conservative_4","Conservative_5","Pressure","Pressure_Coefficient","Mach", "Temperature", "Laminar_Viscosity", "Skin_Friction_Coefficient", "Heat_Transfer", "Y_Plus", "Eddy_Viscosity"
ZONE NODES= 14290, ELEMENTS= 14000, DATAPACKING=POINT, ZONETYPE=FEQUADRILATERAL
5.025000e+01	6.145997e-08	1.317690e-02	8.846233e-01	1.562444e-01	2.763161e+03	4.091041e-03	1.093016e+03	-5.152334e-04	2.000529e-01	2.881489e+02	1.796172e-05	0.000000e+00	0.000000e+00	0.000000e+00	3.785702e-06	
4.250927e+01	6.145997e-08	1.317702e-02	8.849829e-01	1.554868e-01	2.763209e+03	4.091119e-03	1.093029e+03	-7.370717e-05	2.001004e-01	2.881496e+02	1.796175e-05	0.000000e+00	0.000000e+00	0.000000e+00	3.786092e-06	
3.598386e+01	6.012099e-08	1.317704e-02	8.850389e-01	1.548939e-01	2.763215e+03	4.090811e-03	1.093033e+03	5.426631e-05	2.000894e-01	2.881502e+02	1.796178e-05	0.000000e+00	0.000000e+00	0.000000e+00	3.785018e-06	
3.048295e+01	5.658512e-08	1.317707e-02	8.850075e-01	1.543926e-01	2.763213e+03	4.090396e-03	1.093036e+03	1.416258e-04	2.000628e-01	2.881503e+02	1.796179e-05	0.000000e+00	0.000000e+00	0.000000e+00	3.783586e-06	
2.584570e+01	5.188899e-08	1.317710e-02	8.849826e-01	1.539003e-01	2.763215e+03	4.090014e-03	1.093039e+03	2.674206e-04	2.000380e-01	2.881506e+02	1.796180e-05	0.000000e+00	0.000000e+00	0.000000e+00	3.782273e-06	
2.193651e+01	4.671114e-08	1.317714e-02	8.849728e-01	1.533835e-01	2.763221e+03	4.089640e-03	1.093044e+03	4.300219e-04	2.000154e-01	2.881510e+02	1.796182e-05	0.000000e+00	0.000000e+00	0.000000e+00	3.780998e-06	
1.864107e+01	4.147993e-08	1.317718e-02	8.849709e-01	1.528271e-01	2.763225e+03	4.089244e-03	1.093049e+03	5.818470e-04	1.999931e-01	2.881513e+02	1.796183e-05	0.000000e+00	0.000000e+00	0.000000e+00	3.779644e-06	
1.586303e+01	3.645440e-08	1.317723e-02	8.849725e-01	1.522032e-01	2.763232e+03	4.088823e-03	1.093054e+03	7.748746e-04	1.999690e-01	2.881517e+02	1.796186e-05	0.000000e+00	0.000000e+00	0.000000e+00	3.778210e-06	
1.352114e+01	3.178040e-08	1.317728e-02	8.849738e-01	1.515029e-01	2.763238e+03	4.088313e-03	1.093060e+03	9.568084e-04	1.999421e-01	2.881521e+02	1.796187e-05	0.000000e+00	0.000000e+00	0.000000e+00	3.776465e-06	
1.154694e+01	2.752933e-08	1.317734e-02	8.849727e-01	1.506922e-01	2.763247e+03	4.087684e-03	1.093068e+03	1.216157e-03	1.999102e-01	2.881527e+02	1.796190e-05	0.000000e+00	0.000000e+00	0.000000e+00	3.774317e-06	
9.882688e+00	2.372474e-08	1.317744e-02	8.849548e-01	1.497685e-01	2.763263e+03	4.086860e-03	1.093079e+03	1.589431e-03	1.998701e-01	2.881536e+02	1.796194e-05	0.000000e+00	0.000000e+00	0.000000e+00	3.771513e-06	
8.479730e+00	2.036047e-08	1.317756e-02	8.849233e-01	1.487426e-01	2.763285e+03	4.085832e-03	1.093093e+03	2.070451e-03	1.998230e-01	2.881547e+02	1.796200e-05	0.000000e+00	0.000000e+00	0.000000e+00	3.768021e-06	
7.297041e+00	1.741282e-08	1.317766e-02	8.849061e-01	1.476132e-01	2.763299e+03	4.084537e-03	1.093104e+03	2.453743e-03	1.997759e-01	2.881556e+02	1.796204e-05	0.000000e+00	0.000000e+00	0.000000e+00	3.763579e-06	
6.300037e+00	1.484867e-08	1.317779e-02	8.849076e-01	1.462824e-01	2.763323e+03	4.082972e-03	1.093120e+03	2.972603e-03	1.997253e-01	2.881567e+02	1.796210e-05	0.000000e+00	0.000000e+00	0.000000e+00	3.758233e-06	
5.459565e+00	1.263075e-08	1.317801e-02	8.848550e-01	1.447480e-01	2.763369e+03	4.080834e-03	1.093147e+03	3.880364e-03	1.996541e-01	2.881589e+02	1.796220e-05	0.000000e+00	0.000000e+00	0.000000e+00	3.750963e-06	
4.751049e+00	1.072100e-08	1.317832e-02	8.847287e-01	1.431157e-01	2.763431e+03	4.077644e-03	1.093182e+03	5.079634e-03	1.995625e-01	2.881617e+02	1.796234e-05	0.000000e+00	0.000000e+00	0.000000e+00	3.740108e-06	
4.153772e+00	9.082628e-09	1.317850e-02	8.846361e-01	1.414228e-01	2.763462e+03	4.072841e-03	1.093204e+03	5.827888e-03	1.994788e-01	2.881634e+02	1.796242e-05	0.000000e+00	0.000000e+00	0.000000e+00	3.723589e-06	
3.650269e+00	7.681263e-09	1.317882e-02	8.845421e-01	1.393669e-01	2.763524e+03	4.066166e-03	1.093241e+03	7.055457e-03	1.993807e-01	2.881662e+02	1.796255e-05	0.000000e+00	0.000000e+00	0.000000e+00	3.700759e-06	
3.225817e+00	6.485544e-09	1.317938e-02	8.842065e-01	1.370581e-01	2.763642e+03	4.056642e-03	1.093307e+03	9.290924e-03	1.992172e-01	2.881714e+02	1.796281e-05	0.000000e+00	0.000000e+00	0.000000e+00	3.668440e-06	
2.868005e+00	5.467344e-09	1.318008e-02	8.835827e-01	1.348220e-01	2.763780e+03	4.043339e-03	1.093389e+03	1.205880e-02	1.989915e-01	2.881777e+02	1.796311e-05	0.000000e+00	0.000000e+00	0.000000e+00	3.623556e-06	
2.566371e+00	4.601746e-09	1.318046e-02	8.829109e-01	1.327337e-01	2.763823e+03	4.025229e-03	1.093433e+03	1.354143e-02	1.987671e-01	2.881811e+02	1.796328e-05	0.000000e+00	0.000000e+00	0.000000e+00	3.562618e-06	
2.312094e+00	3.866891e-09	1.318134e-02	8.820543e-01	1.300593e-01	2.763994e+03	4.001945e-03	1.093536e+03	1.700159e-02	1.984749e-01	2.881889e+02	1.796366e-05	0.000000e+00	0.000000e+00	0.000000e+00	3.485622e-06	
2.097739e+00	3.243745e-09	1.318267e-02	8.805806e-01	1.275461e-01	2.764259e+03	3.970959e-03	1.093692e+03	2.226668e-02	1.980452e-01	2.882010e+02	1.796424e-05	0.000000e+00	0.000000e+00	0.000000e+00	3.385066e-06	
1.917038e+00	2.715830e-09	1.318341e-02	8.789232e-01	1.258081e-01	2.764354e+03	3.928887e-03	1.093782e+03	2.528450e-02	1.976113e-01	2.882083e+02	1.796460e-05	0.000000e+00	0.000000e+00	0.000000e+00	3.251018e-06	
1.764708e+00	2.268948e-09	1.318485e-02	8.771450e-01	1.237033e-01	2.764625e+03	3.875334e-03	1.093947e+03	3.085547e-02	1.971279e-01	2.882205e+02	1.796518e-05	0.000000e+00	0.000000e+00	0.000000e+00	3.086192e-06	
1.636294e+00	1.890912e-09	1.318682e-02	8.745767e-01	1.221433e-01	2.765018e+03	3.808642e-03	1.094180e+03	3.870761e-02	1.964780e-01	2.882387e+02	1.796607e-05	0.000000e+00	0.000000e+00	0.000000e+00	2.889299e-06	
1.528042e+00	1.571293e-09	1.318796e-02	8.717363e-01	1.221637e-01	2.765169e+03	3.733553e-03	1.094317e+03	4.329619e-02	1.958321e-01	2.882498e+02	1.796660e-05	0.000000e+00	0.000000e+00	0.000000e+00	2.677682e-06	
1.436785e+00	1.301192e-09	1.319003e-02	8.690231e-01	1.224204e-01	2.765591e+03	3.676836e-03	1.094558e+03	5.143084e-02	1.952055e-01	2.882681e+02	1.796749e-05	0.000000e+00	0.000000e+00	0.000000e+00	2.525878e-06	
1.359856e+00	1.073025e-09	1.319120e-02	8.669097e-01	1.246079e-01	2.765804e+03	3.698251e-03	1.094692e+03	5.593407e-02	1.947881e-01	2.882776e+02	1.796795e-05	0.000000e+00	0.000000e+00	0.000000e+00	2.583256e-06	
1.295005e+00	8.803451e-10	1.319236e-02	8.657198e-01	1.276595e-01	2.766081e+03	3.945958e-03	1.094823e+03	6.036704e-02	1.946038e-01	2.882871e+02	1.796841e-05	0.000000e+00	0.000000e+00	0.000000e+00	3.310436e-06	
1.240335e+00	7.176781e-10	1.319229e-02	8.645531e-01	1.322594e-01	2.766057e+03	4.706377e-03	1.094826e+03	6.045712e-02	1.944994e-01	2.882893e+02	1.796851e-05	0.000000e+00	0.000000e+00	0.000000e+00	6.412839e-06	
1.194249e+00	5.803809e-10	1.319062e-02	8.612091e-01	1.371285e-01	2.765633e+03	6.314458e-03	1.094723e+03	5.697219e-02	1.939531e-01	2.882986e+02	1.796897e-05	0.000000e+00	0.000000e+00	0.000000e+00	1.812096e-05	
1.155399e+00	4.645192e-10	1.318511e-02	8.491837e-01	1.415595e-01	2.764314e+03	8.715633e-03	1.094483e+03	4.891075e-02	1.915328e-01	2.883561e+02	1.797175e-05	0.000000e+00	0.000000e+00	0.000000e+00	4.849504e-05	
1.122648e+00	3.667626e-10	1.317237e-02	8.202579e-01	1.434245e-01	2.761396e+03	1.145690e-02	1.094030e+03	3.365346e-02	1.853870e-01	2.885155e+02	1.797946e-05	0.000000e+00	0.000000e+00	0.000000e+00	9.400949e-05	
1.095039e+00	2.842932e-10	1.315439e-02	7.696481e-01	1.400208e-01	2.757176e+03	1.399725e-02	1.093566e+03	1.801562e-02	1.743175e-01	2.887872e+02	1.799261e-05	0.000000e+00	0.000000e+00	0.000000e+00	1.380370e-04	
1.071765e+00	2.147285e-10	1.313290e-02	6.972194e-01	1.318923e-01	2.751646e+03	1.572136e-02	1.092991e+03	-1.379420e-03	1.582894e-01	2.891076e+02	1.800810e-05	0.000000e+00	0.000000e+00	0.000000e+00	1.668710e-04	
1.052145e+00	1.560550e-10	1.311049e-02	6.058830e-01	1.184260e-01	2.745485e+03	1.624645e-02	1.092380e+03	-2.194204e-02	1.378701e-01	2.894400e+02	1.802417e-05	0.000000e+00	0.000000e+00	0.000000e+00	1.750761e-04	
1.035605e+00	1.065715e-10	1.308967e-02	4.970640e-01	1.000609e-01	2.739355e+03	1.530217e-02	1.091814e+03	-4.102440e-02	1.133537e-01	2.897500e+02	1.803914e-05	0.000000e+00	0.000000e+00	0.000000e+00	1.588297e-04	
1.021662e+00	6.484151e-11	1.307023e-02	3.675991e-01	7.640057e-02	2.733604e+03	1.267797e-02	1.091285e+03	-5.885314e-02	8.402002e-02	2.900404e+02	1.805317e-05	0.000000e+00	0.000000e+00	0.000000e+00	1.133130e-04	
1.009908e+00	2.965224e-11	1.305167e-02	2.040368e-01	4.441765e-02	2.728598e+03	8.108421e-03	1.090771e+03	-7.616014e-02	4.677342e-02	2.903161e+02	1.806647e-05	0.000000e+00	0.000000e+00	0.000000e+00	3.807557e-05	
1.000000e+00	-2.006297e-14	1.304436e-02	0.000000e+00	0.000000e+00	2.727506e+03	1.000000e-10	1.091002e+03	-6.835864e-02	0.000000e+00	2.905404e+02	1.807729e-05	8.159884e-04	2.194614e-06	9.892854e+00	1.369349e-36	
9.900915e-01	-1.397070e-03	1.306462e-02	0.000000e+00	0.000000e+00	2.729929e+03	1.000000e-10	1.091972e+03	-3.570726e-02	0.000000e+00	2.903476e+02	1.806799e-05	8.629472e-03	1.018099e-04	3.252458e-01	1.380001e-36	
9.796764e-01	-2.847068e-03	1.306428e-02	0.000000e+00	0.000000e+00	2.729490e+03	1.000000e-10	1.091796e+03	-4.162321e-02	0.000000e+00	2.903083e+02	1.806610e-05	7.357283e-03	6.938520e-05	3.003178e-01	1.380295e-36	
9.687423e-01	-4.349366e-03	1.306503e-02	0.000000e+00	0.000000e+00	2.729459e+03	1.000000e-10	1.091784e+03	-4.203607e-02	0.000000e+00	2.902886e+02	1.806514e-05	6.545692e-03	6.040001e-05	2.832927e-01	1.380827e-36	
9.572780e-01	-5.903024e-03	1.306600e-02	0.000000e+00	0.000000e+00	2.729587e+03	1.000000e-10	1.091835e+03	-4.031699e-02	0.000000e+00	2.902806e+02	1.806476e-05	6.155538e-03	5.489270e-05	2.747363e-01	1.381327e-36	
9.452742e-01	-7.506773e-03	1.306711e-02	0.000000e+00	0.000000e+00	2.729800e+03	1.000000e-10	1.091920e+03	-3.744121e-02	0.000000e+00	2.902786e+02	1.806466e-05	5.997074e-03	5.536453e-05	2.711899e-01	1.381817e-36	
9.327234e-01	-9.158995e-03	1.306826e-02	0.000000e+00	0.000000e+00	2.730043e+03	1.000000e-10	1.092017e+03	-3.416497e-02	0.000000e+00	2.902789e+02	1.806467e-05	5.940293e-03	5.717639e-05	2.699148e-01	1.382302e-36	
9.196202e-01	-1.085771e-02	1.306937e-02	0.000000e+00	0.000000e+00	2.730284e+03	1.000000e-10	1.092113e+03	-3.092739e-02	0.000000e+00	2.902798e+02	1.806472e-05	5.917561e-03	5.881465e-05	2.694086e-01	1.382761e-36	
9.059613e-01	-1.260056e-02	1.307039e-02	0.000000e+00	0.000000e+00	2.730510e+03	1.000000e-10	1.092204e+03	-2.787837e-02	0.000000e+00	2.902811e+02	1.806478e-05	5.901833e-03	6.147452e-05	2.690600e-01	1.383181e-36	
8.917464e-01	-1.438481e-02	1.307136e-02	0.000000e+00	0.000000e+00	2.730722e+03	1.000000e-10	1.092289e+03	-2.501980e-02	0.000000e+00	2.902822e+02	1.806484e-05	5.887217e-03	6.521022e-05	2.687358e-01	1.383577e-36	
8.769775e-01	-1.620730e-02	1.307232e-02	0.000000e+00	0.000000e+00	2.730925e+03	1.000000e-10	1.092370e+03	-2.228149e-02	0.000000e+00	2.902825e+02	1.806485e-05	5.875063e-03	6.710794e-05	2.684679e-01	1.383981e-36	
8.616600e-01	-1.806450e-02	1.307326e-02	0.000000e+00	0.000000e+00	2.731124e+03	1.000000e-10	1.092450e+03	-1.959996e-02	0.000000e+00	2.902826e+02	1.806486e-05	5.866934e-03	7.118370e-05	2.682917e-01	1.384379e-36	
8.458022e-01	-1.995243e-02	1.307424e-02	0.000000e+00	0.000000e+00	2.731323e+03	1.000000e-10	1.092529e+03	-1.691515e-02	0.000000e+00	2.902820e+02	1.806483e-05	5.863781e-03	7.187003e-05	2.682301e-01	1.384801e-36	
8.294158e-01	-2.186671e-02	1.307521e-02	0.000000e+00	0.000000e+00	2.731526e+03	1.000000e-10	1.092610e+03	-1.418822e-02	0.000000e+00	2.902820e+02	1.806483e-05	5.865589e-03	7.634190e-05	2.682814e-01	1.385212e-36	
8.125161e-01	-2.380253e-02	1.307624e-02	0.000000e+00	0.000000e+00	2.731733e+03	1.000000e-10	1.092693e+03	-1.139874e-02	0.000000e+00	2.902813e+02	1.806479e-05	5.871901e-03	7.856432e-05	2.684368e-01	1.385654e-36	
7.951217e-01	-2.575469e-02	1.307727e-02	0.000000e+00	0.000000e+00	2.731945e+03	1.000000e-10	1.092778e+03	-8.541505e-03	0.000000e+00	2.902808e+02	1.806477e-05	5.882269e-03	8.301903e-05	2.686847e-01	1.386098e-36	
7.772549e-01	-2.771752e-02	1.307837e-02	0.000000e+00	0.000000e+00	2.732163e+03	1.000000e-10	1.092865e+03	-5.601204e-03	0.000000e+00	2.902795e+02	1.806471e-05	5.896546e-03	8.287233e-05	2.690227e-01	1.386579e-36	
7.589416e-01	-2.968498e-02	1.307947e-02	0.000000e+00	0.000000e+00	2.732388e+03	1.000000e-10	1.092955e+03	-2.574530e-03	0.000000e+00	2.902792e+02	1.806469e-05	5.914897e-03	8.779389e-05	2.694525e-01	1.387046e-36	
7.402113e-01	-3.165061e-02	1.308064e-02	0.000000e+00	0.000000e+00	2.732621e+03	1.000000e-10	1.093048e+03	5.652408e-04	0.000000e+00	2.902780e+02	1.806463e-05	5.937264e-03	8.984327e-05	2.699745e-01	1.387555e-36	
7.210966e-01	-3.360759e-02	1.308183e-02	0.000000e+00	0.000000e+00	2.732861e+03	1.000000e-10	1.093144e+03	3.805522e-03	0.000000e+00	2.902771e+02	1.806459e-05	5.963535e-03	9.490898e-05	2.705840e-01	1.388069e-36	
7.016337e-01	-3.554873e-02	1.308310e-02	0.000000e+00	0.000000e+00	2.733109e+03	1.000000e-10	1.093244e+03	7.144531e-03	0.000000e+00	2.902752e+02	1.806450e-05	5.994753e-03	9.476512e-05	2.713059e-01	1.388632e-36	
6.818617e-01	-3.746650e-02	1.308438e-02	0.000000e+00	0.000000e+00	2.733365e+03	1.000000e-10	1.093346e+03	1.060305e-02	0.000000e+00	2.902739e+02	1.806444e-05	6.031724e-03	9.982408e-05	2.721554e-01	1.389190e-36	
6.618224e-01	-3.935312e-02	1.308575e-02	0.000000e+00	0.000000e+00	2.733627e+03	1.000000e-10	1.093451e+03	1.412578e-02	0.000000e+00	2.902714e+02	1.806431e-05	6.077034e-03	1.016407e-04	2.731918e-01	1.389798e-36	
6.415602e-01	-4.120057e-02	1.308717e-02	0.000000e+00	0.000000e+00	2.733903e+03	1.000000e-10	1.093561e+03	1.784592e-02	0.000000e+00	2.902692e+02	1.806421e-05	6.132357e-03	1.060680e-04	2.744490e-01	1.390427e-36	
6.211213e-01	-4.300065e-02	1.308872e-02	0.000000e+00	0.000000e+00	2.734196e+03	1.000000e-10	1.093678e+03	2.179166e-02	0.000000e+00	2.902660e+02	1.806405e-05	6.195441e-03	1.052430e-04	2.758756e-01	1.391120e-36	
6.005538e-01	-4.474509e-02	1.309028e-02	0.000000e+00	0.000000e+00	2.734503e+03	1.000000e-10	1.093801e+03	2.593432e-02	0.000000e+00	2.902639e+02	1.806395e-05	6.266050e-03	1.098230e-04	2.774614e-01	1.391809e-36	
5.799069e-01	-4.642560e-02	1.309199e-02	0.000000e+00	0.000000e+00	2.734829e+03	1.000000e-10	1.093932e+03	3.032339e-02	0.000000e+00	2.902606e+02	1.806379e-05	6.344718e-03	1.112277e-04	2.792183e-01	1.392573e-36	
5.592307e-01	-4.803399e-02	1.309378e-02	0.000000e+00	0.000000e+00	2.735176e+03	1.000000e-10	1.094070e+03	3.499728e-02	0.000000e+00	2.902576e+02	1.806365e-05	6.430296e-03	1.147685e-04	2.811164e-01	1.393368e-36	
5.385754e-01	-4.956225e-02	1.309572e-02	0.000000e+00	0.000000e+00	2.735541e+03	1.000000e-10	1.094217e+03	3.992523e-02	0.000000e+00	2.902536e+02	1.806346e-05	6.522370e-03	1.154518e-04	2.831457e-01	1.394237e-36	
5.179913e-01	-5.100267e-02	1.309769e-02	0.000000e+00	0.000000e+00	2.735919e+03	1.000000e-10	1.094367e+03	4.501116e-02	0.000000e+00	2.902499e+02	1.806328e-05	6.626109e-03	1.179080e-04	2.854129e-01	1.395120e-36	
4.975276e-01	-5.234796e-02	1.309982e-02	0.000000e+00	0.000000e+00	2.736318e+03	1.000000e-10	1.094527e+03	5.039755e-02	0.000000e+00	2.902450e+02	1.806304e-05	6.748364e-03	1.189618e-04	2.880610e-01	1.396083e-36	
4.772328e-01	-5.359135e-02	1.310212e-02	0.000000e+00	0.000000e+00	2.736757e+03	1.000000e-10	1.094703e+03	5.631024e-02	0.000000e+00	2.902406e+02	1.806283e-05	6.888094e-03	1.189830e-04	2.910568e-01	1.397114e-36	
4.571535e-01	-5.472669e-02	1.310461e-02	0.000000e+00	0.000000e+00	2.737237e+03	1.000000e-10	1.094895e+03	6.278017e-02	0.000000e+00	2.902364e+02	1.806263e-05	7.038662e-03	1.236316e-04	2.942518e-01	1.398221e-36	
4.373345e-01	-5.574856e-02	1.310723e-02	0.000000e+00	0.000000e+00	2.737746e+03	1.000000e-10	1.095098e+03	6.963469e-02	0.000000e+00	2.902324e+02	1.806243e-05	7.198737e-03	1.232253e-04	2.976118e-01	1.399384e-36	
4.178183e-01	-5.665235e-02	1.311011e-02	0.000000e+00	0.000000e+00	2.738308e+03	1.000000e-10	1.095323e+03	7.720566e-02	0.000000e+00	2.902281e+02	1.806223e-05	7.366731e-03	1.240894e-04	3.011007e-01	1.400663e-36	
3.986445e-01	-5.743434e-02	1.311315e-02	0.000000e+00	0.000000e+00	2.738902e+03	1.000000e-10	1.095561e+03	8.520838e-02	0.000000e+00	2.902238e+02	1.806202e-05	7.540030e-03	1.209740e-04	3.046604e-01	1.402010e-36	
3.798501e-01	-5.809174e-02	1.311628e-02	0.000000e+00	0.000000e+00	2.739518e+03	1.000000e-10	1.095807e+03	9.351976e-02	0.000000e+00	2.902198e+02	1.806183e-05	7.729174e-03	1.269869e-04	3.084980e-01	1.403397e-36	
3.614685e-01	-5.862275e-02	1.311961e-02	0.000000e+00	0.000000e+00	2.740173e+03	1.000000e-10	1.096069e+03	1.023378e-01	0.000000e+00	2.902154e+02	1.806161e-05	7.946845e-03	1.228665e-04	3.128551e-01	1.404874e-36	
3.435301e-01	-5.902656e-02	1.312330e-02	0.000000e+00	0.000000e+00	2.740919e+03	1.000000e-10	1.096368e+03	1.123930e-01	0.000000e+00	2.902128e+02	1.806149e-05	8.183811e-03	1.244039e-04	3.175320e-01	1.406485e-36	
3.260616e-01	-5.930334e-02	1.312729e-02	0.000000e+00	0.000000e+00	2.741732e+03	1.000000e-10	1.096693e+03	1.233542e-01	0.000000e+00	2.902108e+02	1.806139e-05	8.421294e-03	1.179382e-04	3.221566e-01	1.408217e-36	
3.090864e-01	-5.945423e-02	1.313141e-02	0.000000e+00	0.000000e+00	2.742600e+03	1.000000e-10	1.097040e+03	1.350519e-01	0.000000e+00	2.902116e+02	1.806143e-05	8.655012e-03	1.299829e-04	3.266468e-01	1.409978e-36	
2.926242e-01	-5.948129e-02	1.313574e-02	0.000000e+00	0.000000e+00	2.743491e+03	1.000000e-10	1.097396e+03	1.470541e-01	0.000000e+00	2.902101e+02	1.806136e-05	8.895206e-03	1.240056e-04	3.312040e-01	1.411857e-36	
2.766912e-01	-5.938744e-02	1.314012e-02	0.000000e+00	0.000000e+00	2.744402e+03	1.000000e-10	1.097761e+03	1.593288e-01	0.000000e+00	2.902096e+02	1.806133e-05	9.169136e-03	1.260154e-04	3.363213e-01	1.413748e-36	
2.613001e-01	-5.917639e-02	1.314501e-02	0.000000e+00	0.000000e+00	2.745433e+03	1.000000e-10	1.098173e+03	1.732291e-01	0.000000e+00	2.902108e+02	1.806139e-05	9.470192e-03	1.204368e-04	3.418601e-01	1.415837e-36	
2.464604e-01	-5.885255e-02	1.315016e-02	0.000000e+00	0.000000e+00	2.746558e+03	1.000000e-10	1.098623e+03	1.883910e-01	0.000000e+00	2.902160e+02	1.806164e-05	9.760792e-03	1.283318e-04	3.471284e-01	1.417999e-36	
2.321784e-01	-5.842094e-02	1.315571e-02	0.000000e+00	0.000000e+00	2.747754e+03	1.000000e-10	1.099102e+03	2.045096e-01	0.000000e+00	2.902199e+02	1.806183e-05	1.003293e-02	1.234948e-04	3.520045e-01	1.420350e-36	
2.184572e-01	-5.788708e-02	1.316117e-02	0.000000e+00	0.000000e+00	2.748940e+03	1.000000e-10	1.099576e+03	2.204890e-01	0.000000e+00	2.902246e+02	1.806206e-05	1.031445e-02	1.253333e-04	3.569780e-01	1.422660e-36	
2.052973e-01	-5.725691e-02	1.316680e-02	0.000000e+00	0.000000e+00	2.750161e+03	1.000000e-10	1.100064e+03	2.369436e-01	0.000000e+00	2.902294e+02	1.806229e-05	1.064894e-02	1.249813e-04	3.627925e-01	1.425039e-36	
1.926964e-01	-5.653666e-02	1.317302e-02	0.000000e+00	0.000000e+00	2.751547e+03	1.000000e-10	1.100619e+03	2.556191e-01	0.000000e+00	2.902386e+02	1.806273e-05	1.101013e-02	1.306092e-04	3.689714e-01	1.427628e-36	
1.806499e-01	-5.573279e-02	1.317987e-02	0.000000e+00	0.000000e+00	2.753066e+03	1.000000e-10	1.101227e+03	2.760953e-01	0.000000e+00	2.902478e+02	1.806318e-05	1.132797e-02	1.303592e-04	3.743467e-01	1.430496e-36	
1.691512e-01	-5.485187e-02	1.318681e-02	0.000000e+00	0.000000e+00	2.754604e+03	1.000000e-10	1.101842e+03	2.968184e-01	0.000000e+00	2.902572e+02	1.806363e-05	1.159987e-02	1.306080e-04	3.789023e-01	1.433402e-36	
1.581914e-01	-5.390049e-02	1.319354e-02	0.000000e+00	0.000000e+00	2.756069e+03	1.000000e-10	1.102428e+03	3.165649e-01	0.000000e+00	2.902634e+02	1.806393e-05	1.191089e-02	1.319315e-04	3.840394e-01	1.436260e-36	
1.477603e-01	-5.288522e-02	1.320088e-02	0.000000e+00	0.000000e+00	2.757683e+03	1.000000e-10	1.103073e+03	3.383041e-01	0.000000e+00	2.902719e+02	1.806434e-05	1.229799e-02	1.325501e-04	3.903288e-01	1.439359e-36	
