TITLE = "Visualization of the volumetric solution"
VARIABLES = "x","y","Conservative_1","Conservative_2","Conservative_3","Conservative_4","Conservative_5","Pressure","Pressure_Coefficient","Mach", "Temperature", "Laminar_Viscosity", "Skin_Friction_Coefficient", "Heat_Transfer", "Y_Plus", "Eddy_Viscosity"
ZONE NODES= 14290, ELEMENTS= 14000, DATAPACKING=POINT, ZONETYPE=FEQUADRILATERAL
5.025000e+01	6.145997e-08	1.317631e-03	8.846957e-02	1.578080e-02	2.763013e+02	4.092224e-02	1.092947e+02	-2.840819e-03	2.001405e-01	2.881437e+02	1.796146e-05	0.000000e+00	0.000000e+00	0.000000e+00	3.789478e-06	
4.250927e+01	6.145997e-08	1.317662e-03	8.853960e-02	1.566201e-02	2.763130e+02	4.091179e-02	1.092981e+02	-1.703865e-03	2.002423e-01	2.881457e+02	1.796156e-05	0.000000e+00	0.000000e+00	0.000000e+00	3.786075e-06	
3.598386e+01	6.012099e-08	1.317665e-03	8.854772e-02	1.559090e-02	2.763142e+02	4.092016e-02	1.092987e+02	-1.495857e-03	2.002318e-01	2.881468e+02	1.796161e-05	0.000000e+00	0.000000e+00	0.000000e+00	3.789050e-06	
3.048295e+01	5.658512e-08	1.317668e-03	8.854033e-02	1.554658e-02	2.763140e+02	4.092681e-02	1.092990e+02	-1.395126e-03	2.001980e-01	2.881469e+02	1.796162e-05	0.000000e+00	0.000000e+00	0.000000e+00	3.791458e-06	
2.584570e+01	5.188899e-08	1.317671e-03	8.853325e-02	1.551107e-02	2.763141e+02	4.092171e-02	1.092994e+02	-1.248011e-03	2.001682e-01	2.881472e+02	1.796164e-05	0.000000e+00	0.000000e+00	0.000000e+00	3.789732e-06	
2.193651e+01	4.671114e-08	1.317675e-03	8.852789e-02	1.547854e-02	2.763144e+02	4.091815e-02	1.092998e+02	-1.110938e-03	2.001433e-01	2.881475e+02	1.796165e-05	0.000000e+00	0.000000e+00	0.000000e+00	3.788548e-06	
1.864107e+01	4.147993e-08	1.317679e-03	8.852167e-02	1.544575e-02	2.763147e+02	4.090373e-02	1.093003e+02	-9.566074e-04	2.001164e-01	2.881479e+02	1.796167e-05	0.000000e+00	0.000000e+00	0.000000e+00	3.783543e-06	
1.586303e+01	3.645440e-08	1.317677e-03	8.851823e-02	1.541223e-02	2.763138e+02	4.088369e-02	1.093002e+02	-1.004972e-03	2.000962e-01	2.881478e+02	1.796166e-05	0.000000e+00	0.000000e+00	0.000000e+00	3.776534e-06	
1.352114e+01	3.178040e-08	1.317681e-03	8.851428e-02	1.536799e-02	2.763141e+02	4.085077e-02	1.093006e+02	-8.512206e-04	2.000700e-01	2.881482e+02	1.796168e-05	0.000000e+00	0.000000e+00	0.000000e+00	3.765065e-06	
1.154694e+01	2.752933e-08	1.317689e-03	8.850617e-02	1.532259e-02	2.763152e+02	4.081578e-02	1.093015e+02	-5.544609e-04	2.000335e-01	2.881489e+02	1.796172e-05	0.000000e+00	0.000000e+00	0.000000e+00	3.752941e-06	
9.882688e+00	2.372474e-08	1.317689e-03	8.849796e-02	1.527892e-02	2.763143e+02	4.076355e-02	1.093016e+02	-5.353034e-04	1.999989e-01	2.881489e+02	1.796172e-05	0.000000e+00	0.000000e+00	0.000000e+00	3.734801e-06	
8.479730e+00	2.036047e-08	1.317689e-03	8.849349e-02	1.522265e-02	2.763136e+02	4.069028e-02	1.093017e+02	-4.978347e-04	1.999676e-01	2.881491e+02	1.796173e-05	0.000000e+00	0.000000e+00	0.000000e+00	3.709446e-06	
7.297041e+00	1.741282e-08	1.317707e-03	8.848578e-02	1.515325e-02	2.763176e+02	4.058264e-02	1.093038e+02	2.151074e-04	1.999213e-01	2.881509e+02	1.796181e-05	0.000000e+00	0.000000e+00	0.000000e+00	3.672526e-06	
6.300037e+00	1.484867e-08	1.317718e-03	8.847126e-02	1.509695e-02	2.763194e+02	4.044318e-02	1.093052e+02	6.835379e-04	1.998662e-01	2.881522e+02	1.796188e-05	0.000000e+00	0.000000e+00	0.000000e+00	3.624984e-06	
5.459565e+00	1.263075e-08	1.317721e-03	8.846823e-02	1.503609e-02	2.763197e+02	4.025259e-02	1.093057e+02	8.503389e-04	1.998361e-01	2.881527e+02	1.796190e-05	0.000000e+00	0.000000e+00	0.000000e+00	3.560610e-06	
4.751049e+00	1.072100e-08	1.317759e-03	8.845378e-02	1.495706e-02	2.763290e+02	4.000740e-02	1.093101e+02	2.358857e-03	1.997680e-01	2.881563e+02	1.796207e-05	0.000000e+00	0.000000e+00	0.000000e+00	3.479218e-06	
4.153772e+00	9.082628e-09	1.317789e-03	8.842449e-02	1.490729e-02	2.763353e+02	3.968197e-02	1.093137e+02	3.561828e-03	1.996797e-01	2.881592e+02	1.796222e-05	0.000000e+00	0.000000e+00	0.000000e+00	3.373037e-06	
3.650269e+00	7.681263e-09	1.317811e-03	8.839160e-02	1.486300e-02	2.763387e+02	3.926610e-02	1.093162e+02	4.388221e-03	1.995872e-01	2.881608e+02	1.796229e-05	0.000000e+00	0.000000e+00	0.000000e+00	3.240560e-06	
3.225817e+00	6.485544e-09	1.317897e-03	8.832880e-02	1.480724e-02	2.763588e+02	3.873856e-02	1.093262e+02	7.777026e-03	1.994131e-01	2.881685e+02	1.796267e-05	0.000000e+00	0.000000e+00	0.000000e+00	3.078180e-06	
2.868005e+00	5.467344e-09	1.317935e-03	8.823452e-02	1.483013e-02	2.763638e+02	3.807888e-02	1.093307e+02	9.286090e-03	1.992075e-01	2.881719e+02	1.796283e-05	0.000000e+00	0.000000e+00	0.000000e+00	2.882809e-06	
2.566371e+00	4.601746e-09	1.318016e-03	8.812929e-02	1.483928e-02	2.763797e+02	3.729854e-02	1.093399e+02	1.238341e-02	1.989654e-01	2.881785e+02	1.796315e-05	0.000000e+00	0.000000e+00	0.000000e+00	2.663411e-06	
2.312094e+00	3.866891e-09	1.318154e-03	8.794806e-02	1.489498e-02	2.764084e+02	3.641794e-02	1.093561e+02	1.784697e-02	1.985631e-01	2.881911e+02	1.796376e-05	0.000000e+00	0.000000e+00	0.000000e+00	2.430557e-06	
2.097739e+00	3.243745e-09	1.318245e-03	8.772442e-02	1.508770e-02	2.764216e+02	3.544975e-02	1.093666e+02	2.136642e-02	1.981282e-01	2.881987e+02	1.796413e-05	0.000000e+00	0.000000e+00	0.000000e+00	2.191372e-06	
1.917038e+00	2.715830e-09	1.318447e-03	8.744882e-02	1.535355e-02	2.764658e+02	3.446596e-02	1.093905e+02	2.943003e-02	1.975884e-01	2.882176e+02	1.796504e-05	0.000000e+00	0.000000e+00	0.000000e+00	1.966519e-06	
1.764708e+00	2.268948e-09	1.318482e-03	8.719573e-02	1.593587e-02	2.764660e+02	3.350919e-02	1.093946e+02	3.080390e-02	1.972562e-01	2.882208e+02	1.796520e-05	0.000000e+00	0.000000e+00	0.000000e+00	1.763556e-06	
1.636294e+00	1.890912e-09	1.318611e-03	8.702592e-02	1.660848e-02	2.765022e+02	3.275058e-02	1.094103e+02	3.611165e-02	1.971357e-01	2.882340e+02	1.796584e-05	0.000000e+00	0.000000e+00	0.000000e+00	1.614073e-06	
1.528042e+00	1.571293e-09	1.318408e-03	8.703296e-02	1.770700e-02	2.764619e+02	3.236121e-02	1.093881e+02	2.862513e-02	1.976592e-01	2.882199e+02	1.796516e-05	0.000000e+00	0.000000e+00	0.000000e+00	1.540016e-06	
1.436785e+00	1.301192e-09	1.318139e-03	8.726012e-02	1.887657e-02	2.764238e+02	3.278878e-02	1.093602e+02	1.920602e-02	1.987343e-01	2.882051e+02	1.796444e-05	0.000000e+00	0.000000e+00	0.000000e+00	1.619494e-06	
1.359856e+00	1.073025e-09	1.317422e-03	8.754656e-02	2.023372e-02	2.762845e+02	3.453138e-02	1.092881e+02	-5.061851e-03	2.001364e-01	2.881719e+02	1.796283e-05	0.000000e+00	0.000000e+00	0.000000e+00	1.975605e-06	
1.295005e+00	8.803451e-10	1.316348e-03	8.748503e-02	2.127377e-02	2.760771e+02	3.823143e-02	1.091992e+02	-3.501936e-02	2.007011e-01	2.881725e+02	1.796286e-05	0.000000e+00	0.000000e+00	0.000000e+00	2.912880e-06	
1.240335e+00	7.176781e-10	1.314636e-03	8.653158e-02	2.189191e-02	2.757169e+02	4.387103e-02	1.090747e+02	-7.696401e-02	1.992131e-01	2.882187e+02	1.796510e-05	0.000000e+00	0.000000e+00	0.000000e+00	4.878373e-06	
1.194249e+00	5.803809e-10	1.312313e-03	8.400137e-02	2.175890e-02	2.751995e+02	5.079219e-02	1.089323e+02	-1.249529e-01	1.939668e-01	2.883519e+02	1.797154e-05	0.000000e+00	0.000000e+00	0.000000e+00	8.311333e-06	
1.155399e+00	4.645192e-10	1.309547e-03	7.898040e-02	2.054371e-02	2.745424e+02	5.749511e-02	1.087998e+02	-1.695706e-01	1.827245e-01	2.886096e+02	1.798402e-05	0.000000e+00	0.000000e+00	0.000000e+00	1.280325e-05	
1.122648e+00	3.667626e-10	1.306586e-03	7.138102e-02	1.845221e-02	2.737824e+02	6.202144e-02	1.086809e+02	-2.096355e-01	1.653558e-01	2.889475e+02	1.800036e-05	0.000000e+00	0.000000e+00	0.000000e+00	1.645464e-05	
1.095039e+00	2.842932e-10	1.303946e-03	6.184946e-02	1.586758e-02	2.730241e+02	6.296010e-02	1.085843e+02	-2.421879e-01	1.434169e-01	2.892749e+02	1.801619e-05	0.000000e+00	0.000000e+00	0.000000e+00	1.716076e-05	
1.071765e+00	2.147285e-10	1.301721e-03	5.147444e-02	1.311490e-02	2.723273e+02	5.981789e-02	1.084974e+02	-2.714606e-01	1.194584e-01	2.895377e+02	1.802889e-05	0.000000e+00	0.000000e+00	0.000000e+00	1.430493e-05	
1.052145e+00	1.560550e-10	1.299964e-03	4.103534e-02	1.031057e-02	2.717685e+02	5.283121e-02	1.084320e+02	-2.934982e-01	9.524524e-02	2.897542e+02	1.803935e-05	0.000000e+00	0.000000e+00	0.000000e+00	9.174178e-06	
1.035605e+00	1.065715e-10	1.298509e-03	3.080309e-02	7.673253e-03	2.713223e+02	4.260932e-02	1.083737e+02	-3.131333e-01	7.151861e-02	2.899229e+02	1.804749e-05	0.000000e+00	0.000000e+00	0.000000e+00	4.122545e-06	
1.021662e+00	6.484151e-11	1.297380e-03	2.074925e-02	5.026579e-03	2.710076e+02	3.045088e-02	1.083328e+02	-3.269159e-01	4.812920e-02	2.900657e+02	1.805439e-05	0.000000e+00	0.000000e+00	0.000000e+00	1.123684e-06	
1.009908e+00	2.965224e-11	1.296426e-03	1.054398e-02	2.485533e-03	2.707757e+02	1.741715e-02	1.082922e+02	-3.405947e-01	2.443493e-02	2.901703e+02	1.805944e-05	0.000000e+00	0.000000e+00	0.000000e+00	1.226618e-07	
1.000000e+00	-2.006297e-14	1.296438e-03	0.000000e+00	0.000000e+00	2.708014e+02	1.000000e-10	1.083206e+02	-3.310362e-01	0.000000e+00	2.902438e+02	1.806298e-05	6.074510e-03	2.659137e-05	2.693044e+00	1.339249e-40	
9.900915e-01	-1.397070e-03	1.297809e-03	0.000000e+00	0.000000e+00	2.709467e+02	1.000000e-10	1.083787e+02	-3.114608e-01	0.000000e+00	2.900926e+02	1.805569e-05	2.488255e-02	4.794146e-04	5.508328e-02	1.346548e-40	
9.796764e-01	-2.847068e-03	1.298289e-03	0.000000e+00	0.000000e+00	2.710112e+02	1.000000e-10	1.084045e+02	-3.027687e-01	0.000000e+00	2.900544e+02	1.805384e-05	2.310639e-02	1.279900e-04	5.309162e-02	1.348957e-40	
9.687423e-01	-4.349366e-03	1.298646e-03	0.000000e+00	0.000000e+00	2.710777e+02	1.000000e-10	1.084311e+02	-2.938068e-01	0.000000e+00	2.900457e+02	1.805342e-05	2.210946e-02	1.278406e-04	5.194202e-02	1.350537e-40	
9.572780e-01	-5.903024e-03	1.298978e-03	0.000000e+00	0.000000e+00	2.711441e+02	1.000000e-10	1.084576e+02	-2.848571e-01	0.000000e+00	2.900426e+02	1.805327e-05	2.141524e-02	4.275939e-05	5.112700e-02	1.351952e-40	
9.452742e-01	-7.506773e-03	1.299268e-03	0.000000e+00	0.000000e+00	2.712063e+02	1.000000e-10	1.084825e+02	-2.764758e-01	0.000000e+00	2.900445e+02	1.805337e-05	2.084090e-02	5.197528e-05	5.044211e-02	1.353136e-40	
9.327234e-01	-9.158995e-03	1.299544e-03	0.000000e+00	0.000000e+00	2.712654e+02	1.000000e-10	1.085062e+02	-2.685098e-01	0.000000e+00	2.900460e+02	1.805344e-05	2.034216e-02	4.963659e-05	4.984001e-02	1.354272e-40	
9.196202e-01	-1.085771e-02	1.299804e-03	0.000000e+00	0.000000e+00	2.713213e+02	1.000000e-10	1.085285e+02	-2.609780e-01	0.000000e+00	2.900479e+02	1.805353e-05	1.989983e-02	3.611342e-05	4.929984e-02	1.355335e-40	
9.059613e-01	-1.260056e-02	1.300054e-03	0.000000e+00	0.000000e+00	2.713745e+02	1.000000e-10	1.085498e+02	-2.538109e-01	0.000000e+00	2.900488e+02	1.805357e-05	1.951110e-02	8.754072e-05	4.882053e-02	1.356371e-40	
8.917464e-01	-1.438481e-02	1.300287e-03	0.000000e+00	0.000000e+00	2.714254e+02	1.000000e-10	1.085702e+02	-2.469431e-01	0.000000e+00	2.900513e+02	1.805369e-05	1.917596e-02	7.450906e-05	4.840345e-02	1.357317e-40	
8.769775e-01	-1.620730e-02	1.300518e-03	0.000000e+00	0.000000e+00	2.714744e+02	1.000000e-10	1.085898e+02	-2.403411e-01	0.000000e+00	2.900522e+02	1.805374e-05	1.889262e-02	6.272426e-05	4.804865e-02	1.358269e-40	
8.616600e-01	-1.806450e-02	1.300735e-03	0.000000e+00	0.000000e+00	2.715217e+02	1.000000e-10	1.086087e+02	-2.339720e-01	0.000000e+00	2.900542e+02	1.805383e-05	1.865442e-02	6.849301e-05	4.774854e-02	1.359156e-40	
8.458022e-01	-1.995243e-02	1.300954e-03	0.000000e+00	0.000000e+00	2.715678e+02	1.000000e-10	1.086271e+02	-2.277603e-01	0.000000e+00	2.900547e+02	1.805386e-05	1.845748e-02	5.890410e-05	4.749975e-02	1.360065e-40	
8.294158e-01	-2.186671e-02	1.301158e-03	0.000000e+00	0.000000e+00	2.716127e+02	1.000000e-10	1.086451e+02	-2.217040e-01	0.000000e+00	2.900573e+02	1.805398e-05	1.829576e-02	7.346297e-05	4.729458e-02	1.360890e-40	
8.125161e-01	-2.380253e-02	1.301365e-03	0.000000e+00	0.000000e+00	2.716566e+02	1.000000e-10	1.086626e+02	-2.157919e-01	0.000000e+00	2.900579e+02	1.805401e-05	1.816780e-02	6.366537e-05	4.713257e-02	1.361750e-40	
7.951217e-01	-2.575469e-02	1.301563e-03	0.000000e+00	0.000000e+00	2.716995e+02	1.000000e-10	1.086798e+02	-2.100062e-01	0.000000e+00	2.900597e+02	1.805410e-05	1.807202e-02	7.200656e-05	4.701152e-02	1.362559e-40	
7.772549e-01	-2.771752e-02	1.301764e-03	0.000000e+00	0.000000e+00	2.717416e+02	1.000000e-10	1.086967e+02	-2.043296e-01	0.000000e+00	2.900598e+02	1.805410e-05	1.800784e-02	6.420098e-05	4.693160e-02	1.363401e-40	
7.589416e-01	-2.968498e-02	1.301950e-03	0.000000e+00	0.000000e+00	2.717830e+02	1.000000e-10	1.087132e+02	-1.987594e-01	0.000000e+00	2.900624e+02	1.805423e-05	1.797458e-02	8.015242e-05	4.689124e-02	1.364152e-40	
7.402113e-01	-3.165061e-02	1.302143e-03	0.000000e+00	0.000000e+00	2.718237e+02	1.000000e-10	1.087295e+02	-1.932750e-01	0.000000e+00	2.900629e+02	1.805425e-05	1.797234e-02	6.812625e-05	4.689173e-02	1.364955e-40	
7.210966e-01	-3.360759e-02	1.302327e-03	0.000000e+00	0.000000e+00	2.718638e+02	1.000000e-10	1.087455e+02	-1.878696e-01	0.000000e+00	2.900648e+02	1.805434e-05	1.799956e-02	8.039847e-05	4.693031e-02	1.365706e-40	
7.016337e-01	-3.554873e-02	1.302516e-03	0.000000e+00	0.000000e+00	2.719031e+02	1.000000e-10	1.087612e+02	-1.825717e-01	0.000000e+00	2.900645e+02	1.805433e-05	1.806122e-02	6.992590e-05	4.701407e-02	1.366504e-40	
6.818617e-01	-3.746650e-02	1.302694e-03	0.000000e+00	0.000000e+00	2.719423e+02	1.000000e-10	1.087769e+02	-1.772906e-01	0.000000e+00	2.900667e+02	1.805444e-05	1.815918e-02	8.377561e-05	4.714432e-02	1.367225e-40	
6.618224e-01	-3.935312e-02	1.302881e-03	0.000000e+00	0.000000e+00	2.719814e+02	1.000000e-10	1.087926e+02	-1.720186e-01	0.000000e+00	2.900669e+02	1.805445e-05	1.829006e-02	7.342186e-05	4.731728e-02	1.368007e-40	
6.415602e-01	-4.120057e-02	1.303061e-03	0.000000e+00	0.000000e+00	2.720204e+02	1.000000e-10	1.088082e+02	-1.667642e-01	0.000000e+00	2.900682e+02	1.805451e-05	1.845381e-02	7.437376e-05	4.753175e-02	1.368752e-40	
6.211213e-01	-4.300065e-02	1.303249e-03	0.000000e+00	0.000000e+00	2.720596e+02	1.000000e-10	1.088238e+02	-1.614838e-01	0.000000e+00	2.900682e+02	1.805451e-05	1.865195e-02	8.128677e-05	4.778969e-02	1.369543e-40	
6.005538e-01	-4.474509e-02	1.303428e-03	0.000000e+00	0.000000e+00	2.720989e+02	1.000000e-10	1.088396e+02	-1.561829e-01	0.000000e+00	2.900704e+02	1.805461e-05	1.888684e-02	8.923931e-05	4.809267e-02	1.370270e-40	
5.799069e-01	-4.642560e-02	1.303620e-03	0.000000e+00	0.000000e+00	2.721392e+02	1.000000e-10	1.088557e+02	-1.507507e-01	0.000000e+00	2.900705e+02	1.805462e-05	1.915694e-02	7.852336e-05	4.843887e-02	1.371076e-40	
5.592307e-01	-4.803399e-02	1.303810e-03	0.000000e+00	0.000000e+00	2.721803e+02	1.000000e-10	1.088721e+02	-1.452210e-01	0.000000e+00	2.900720e+02	1.805469e-05	1.945692e-02	7.719667e-05	4.882000e-02	1.371860e-40	
5.385754e-01	-4.956225e-02	1.304008e-03	0.000000e+00	0.000000e+00	2.722215e+02	1.000000e-10	1.088886e+02	-1.396594e-01	0.000000e+00	2.900721e+02	1.805470e-05	1.979602e-02	8.791575e-05	4.924729e-02	1.372690e-40	
5.179913e-01	-5.100267e-02	1.304203e-03	0.000000e+00	0.000000e+00	2.722639e+02	1.000000e-10	1.089056e+02	-1.339442e-01	0.000000e+00	2.900739e+02	1.805478e-05	2.018443e-02	8.778413e-05	4.973153e-02	1.373490e-40	
4.975276e-01	-5.234796e-02	1.304414e-03	0.000000e+00	0.000000e+00	2.723084e+02	1.000000e-10	1.089234e+02	-1.279484e-01	0.000000e+00	2.900743e+02	1.805480e-05	2.061532e-02	8.185392e-05	5.026357e-02	1.374377e-40	
4.772328e-01	-5.359135e-02	1.304627e-03	0.000000e+00	0.000000e+00	2.723540e+02	1.000000e-10	1.089416e+02	-1.218023e-01	0.000000e+00	2.900755e+02	1.805486e-05	2.108943e-02	6.496758e-05	5.084223e-02	1.375262e-40	
4.571535e-01	-5.472669e-02	1.304848e-03	0.000000e+00	0.000000e+00	2.724014e+02	1.000000e-10	1.089606e+02	-1.154199e-01	0.000000e+00	2.900768e+02	1.805492e-05	2.162749e-02	9.865639e-05	5.149088e-02	1.376180e-40	
4.373345e-01	-5.574856e-02	1.305086e-03	0.000000e+00	0.000000e+00	2.724537e+02	1.000000e-10	1.089815e+02	-1.083731e-01	0.000000e+00	2.900795e+02	1.805506e-05	2.220876e-02	9.394650e-05	5.218259e-02	1.377154e-40	
4.178183e-01	-5.665235e-02	1.305342e-03	0.000000e+00	0.000000e+00	2.725082e+02	1.000000e-10	1.090033e+02	-1.010302e-01	0.000000e+00	2.900807e+02	1.805511e-05	2.281560e-02	9.012260e-05	5.289570e-02	1.378221e-40	
3.986445e-01	-5.743434e-02	1.305609e-03	0.000000e+00	0.000000e+00	2.725660e+02	1.000000e-10	1.090264e+02	-9.324041e-02	0.000000e+00	2.900829e+02	1.805522e-05	2.346035e-02	7.581365e-05	5.364305e-02	1.379326e-40	
3.798501e-01	-5.809174e-02	1.305892e-03	0.000000e+00	0.000000e+00	2.726275e+02	1.000000e-10	1.090510e+02	-8.494804e-02	0.000000e+00	2.900855e+02	1.805535e-05	2.413804e-02	1.008818e-04	5.441779e-02	1.380492e-40	
3.614685e-01	-5.862275e-02	1.306187e-03	0.000000e+00	0.000000e+00	2.726917e+02	1.000000e-10	1.090767e+02	-7.629335e-02	0.000000e+00	2.900884e+02	1.805548e-05	2.485787e-02	9.329885e-05	5.522902e-02	1.381709e-40	
3.435301e-01	-5.902656e-02	1.306500e-03	0.000000e+00	0.000000e+00	2.727592e+02	1.000000e-10	1.091037e+02	-6.720528e-02	0.000000e+00	2.900905e+02	1.805559e-05	2.564690e-02	9.596543e-05	5.610507e-02	1.383010e-40	
3.260616e-01	-5.930334e-02	1.306837e-03	0.000000e+00	0.000000e+00	2.728324e+02	1.000000e-10	1.091330e+02	-5.733881e-02	0.000000e+00	2.900936e+02	1.805574e-05	2.650576e-02	8.190910e-05	5.704359e-02	1.384402e-40	
3.090864e-01	-5.945423e-02	1.307200e-03	0.000000e+00	0.000000e+00	2.729129e+02	1.000000e-10	1.091652e+02	-4.648545e-02	0.000000e+00	2.900986e+02	1.805598e-05	2.739213e-02	1.096780e-04	5.799678e-02	1.385887e-40	
2.926242e-01	-5.948129e-02	1.307587e-03	0.000000e+00	0.000000e+00	2.729979e+02	1.000000e-10	1.091992e+02	-3.502813e-02	0.000000e+00	2.901031e+02	1.805619e-05	2.828535e-02	1.073833e-04	5.894277e-02	1.387479e-40	
2.766912e-01	-5.938744e-02	1.307997e-03	0.000000e+00	0.000000e+00	2.730874e+02	1.000000e-10	1.092349e+02	-2.297841e-02	0.000000e+00	2.901072e+02	1.805639e-05	2.920116e-02	1.092862e-04	5.989803e-02	1.389172e-40	
2.613001e-01	-5.917639e-02	1.308420e-03	0.000000e+00	0.000000e+00	2.731796e+02	1.000000e-10	1.092718e+02	-1.054944e-02	0.000000e+00	2.901113e+02	1.805659e-05	3.018267e-02	1.029447e-04	6.090550e-02	1.390926e-40	
2.464604e-01	-5.885255e-02	1.308871e-03	0.000000e+00	0.000000e+00	2.732786e+02	1.000000e-10	1.093114e+02	2.796804e-03	0.000000e+00	2.901165e+02	1.805684e-05	3.126364e-02	1.178890e-04	6.199629e-02	1.392785e-40	
2.321784e-01	-5.842094e-02	1.309371e-03	0.000000e+00	0.000000e+00	2.733890e+02	1.000000e-10	1.093556e+02	1.767773e-02	0.000000e+00	2.901230e+02	1.805715e-05	3.236881e-02	1.179813e-04	6.309345e-02	1.394842e-40	
2.184572e-01	-5.788708e-02	1.309896e-03	0.000000e+00	0.000000e+00	2.735049e+02	1.000000e-10	1.094019e+02	3.328589e-02	0.000000e+00	2.901294e+02	1.805746e-05	3.344538e-02	1.204400e-04	6.414579e-02	1.397011e-40	
2.052973e-01	-5.725691e-02	1.310441e-03	0.000000e+00	0.000000e+00	2.736248e+02	1.000000e-10	1.094499e+02	4.944868e-02	0.000000e+00	2.901361e+02	1.805778e-05	3.453029e-02	1.177608e-04	6.519018e-02	1.399260e-40	
1.926964e-01	-5.653666e-02	1.310994e-03	0.000000e+00	0.000000e+00	2.737457e+02	1.000000e-10	1.094983e+02	6.574369e-02	0.000000e+00	2.901417e+02	1.805805e-05	3.572352e-02	1.350810e-04	6.631990e-02	1.401564e-40	
1.806499e-01	-5.573279e-02	1.311594e-03	0.000000e+00	0.000000e+00	2.738773e+02	1.000000e-10	1.095509e+02	8.347956e-02	0.000000e+00	2.901485e+02	1.805838e-05	3.705354e-02	1.300264e-04	6.755731e-02	1.404053e-40	
1.691512e-01	-5.485187e-02	1.312251e-03	0.000000e+00	0.000000e+00	2.740230e+02	1.000000e-10	1.096092e+02	1.031134e-01	0.000000e+00	2.901573e+02	1.805881e-05	3.835735e-02	1.343763e-04	6.875108e-02	1.406770e-40	
1.581914e-01	-5.390049e-02	1.312938e-03	0.000000e+00	0.000000e+00	2.741753e+02	1.000000e-10	1.096701e+02	1.236395e-01	0.000000e+00	2.901669e+02	1.805927e-05	3.952758e-02	1.288735e-04	6.980831e-02	1.409608e-40	
1.477603e-01	-5.288522e-02	1.313609e-03	0.000000e+00	0.000000e+00	2.743219e+02	1.000000e-10	1.097287e+02	1.433844e-01	0.000000e+00	2.901737e+02	1.805960e-05	4.075675e-02	1.440106e-04	7.090206e-02	1.412414e-40	
