TITLE = "Visualization of the surface solution"
VARIABLES = "x","y","Conservative_1","Conservative_2","Conservative_3","Conservative_4","Conservative_5","Pressure","Pressure_Coefficient","Mach", "Temperature", "Laminar_Viscosity", "Skin_Friction_Coefficient", "Heat_Transfer", "Y_Plus", "Eddy_Viscosity"
ZONE NODES= 200, ELEMENTS= 200, DATAPACKING=POINT, ZONETYPE=FELINESEG
1.000000e+00	-2.006297e-14	1.296438e-03	0.000000e+00	0.000000e+00	2.708014e+02	1.000000e-10	1.083206e+02	-3.310362e-01	0.000000e+00	2.902438e+02	1.806298e-05	6.074510e-03	2.659137e-05	2.693044e+00	1.339249e-40	
9.900915e-01	-1.397070e-03	1.297809e-03	0.000000e+00	0.000000e+00	2.709467e+02	1.000000e-10	1.083787e+02	-3.114608e-01	0.000000e+00	2.900926e+02	1.805569e-05	2.488255e-02	4.794146e-04	5.508328e-02	1.346548e-40	
9.796764e-01	-2.847068e-03	1.298289e-03	0.000000e+00	0.000000e+00	2.710112e+02	1.000000e-10	1.084045e+02	-3.027687e-01	0.000000e+00	2.900544e+02	1.805384e-05	2.310639e-02	1.279900e-04	5.309162e-02	1.348957e-40	
9.687423e-01	-4.349366e-03	1.298646e-03	0.000000e+00	0.000000e+00	2.710777e+02	1.000000e-10	1.084311e+02	-2.938068e-01	0.000000e+00	2.900457e+02	1.805342e-05	2.210946e-02	1.278406e-04	5.194202e-02	1.350537e-40	
9.572780e-01	-5.903024e-03	1.298978e-03	0.000000e+00	0.000000e+00	2.711441e+02	1.000000e-10	1.084576e+02	-2.848571e-01	0.000000e+00	2.900426e+02	1.805327e-05	2.141524e-02	4.275939e-05	5.112700e-02	1.351952e-40	
9.452742e-01	-7.506773e-03	1.299268e-03	0.000000e+00	0.000000e+00	2.712063e+02	1.000000e-10	1.084825e+02	-2.764758e-01	0.000000e+00	2.900445e+02	1.805337e-05	2.084090e-02	5.197528e-05	5.044211e-02	1.353136e-40	
9.327234e-01	-9.158995e-03	1.299544e-03	0.000000e+00	0.000000e+00	2.712654e+02	1.000000e-10	1.085062e+02	-2.685098e-01	0.000000e+00	2.900460e+02	1.805344e-05	2.034216e-02	4.963659e-05	4.984001e-02	1.354272e-40	
9.196202e-01	-1.085771e-02	1.299804e-03	0.000000e+00	0.000000e+00	2.713213e+02	1.000000e-10	1.085285e+02	-2.609780e-01	0.000000e+00	2.900479e+02	1.805353e-05	1.989983e-02	3.611342e-05	4.929984e-02	1.355335e-40	
9.059613e-01	-1.260056e-02	1.300054e-03	0.000000e+00	0.000000e+00	2.713745e+02	1.000000e-10	1.085498e+02	-2.538109e-01	0.000000e+00	2.900488e+02	1.805357e-05	1.951110e-02	8.754072e-05	4.882053e-02	1.356371e-40	
8.917464e-01	-1.438481e-02	1.300287e-03	0.000000e+00	0.000000e+00	2.714254e+02	1.000000e-10	1.085702e+02	-2.469431e-01	0.000000e+00	2.900513e+02	1.805369e-05	1.917596e-02	7.450906e-05	4.840345e-02	1.357317e-40	
8.769775e-01	-1.620730e-02	1.300518e-03	0.000000e+00	0.000000e+00	2.714744e+02	1.000000e-10	1.085898e+02	-2.403411e-01	0.000000e+00	2.900522e+02	1.805374e-05	1.889262e-02	6.272426e-05	4.804865e-02	1.358269e-40	
8.616600e-01	-1.806450e-02	1.300735e-03	0.000000e+00	0.000000e+00	2.715217e+02	1.000000e-10	1.086087e+02	-2.339720e-01	0.000000e+00	2.900542e+02	1.805383e-05	1.865442e-02	6.849301e-05	4.774854e-02	1.359156e-40	
8.458022e-01	-1.995243e-02	1.300954e-03	0.000000e+00	0.000000e+00	2.715678e+02	1.000000e-10	1.086271e+02	-2.277603e-01	0.000000e+00	2.900547e+02	1.805386e-05	1.845748e-02	5.890410e-05	4.749975e-02	1.360065e-40	
8.294158e-01	-2.186671e-02	1.301158e-03	0.000000e+00	0.000000e+00	2.716127e+02	1.000000e-10	1.086451e+02	-2.217040e-01	0.000000e+00	2.900573e+02	1.805398e-05	1.829576e-02	7.346297e-05	4.729458e-02	1.360890e-40	
8.125161e-01	-2.380253e-02	1.301365e-03	0.000000e+00	0.000000e+00	2.716566e+02	1.000000e-10	1.086626e+02	-2.157919e-01	0.000000e+00	2.900579e+02	1.805401e-05	1.816780e-02	6.366537e-05	4.713257e-02	1.361750e-40	
7.951217e-01	-2.575469e-02	1.301563e-03	0.000000e+00	0.000000e+00	2.716995e+02	1.000000e-10	1.086798e+02	-2.100062e-01	0.000000e+00	2.900597e+02	1.805410e-05	1.807202e-02	7.200656e-05	4.701152e-02	1.362559e-40	
7.772549e-01	-2.771752e-02	1.301764e-03	0.000000e+00	0.000000e+00	2.717416e+02	1.000000e-10	1.086967e+02	-2.043296e-01	0.000000e+00	2.900598e+02	1.805410e-05	1.800784e-02	6.420098e-05	4.693160e-02	1.363401e-40	
7.589416e-01	-2.968498e-02	1.301950e-03	0.000000e+00	0.000000e+00	2.717830e+02	1.000000e-10	1.087132e+02	-1.987594e-01	0.000000e+00	2.900624e+02	1.805423e-05	1.797458e-02	8.015242e-05	4.689124e-02	1.364152e-40	
7.402113e-01	-3.165061e-02	1.302143e-03	0.000000e+00	0.000000e+00	2.718237e+02	1.000000e-10	1.087295e+02	-1.932750e-01	0.000000e+00	2.900629e+02	1.805425e-05	1.797234e-02	6.812625e-05	4.689173e-02	1.364955e-40	
7.210966e-01	-3.360759e-02	1.302327e-03	0.000000e+00	0.000000e+00	2.718638e+02	1.000000e-10	1.087455e+02	-1.878696e-01	0.000000e+00	2.900648e+02	1.805434e-05	1.799956e-02	8.039847e-05	4.693031e-02	1.365706e-40	
7.016337e-01	-3.554873e-02	1.302516e-03	0.000000e+00	0.000000e+00	2.719031e+02	1.000000e-10	1.087612e+02	-1.825717e-01	0.000000e+00	2.900645e+02	1.805433e-05	1.806122e-02	6.992590e-05	4.701407e-02	1.366504e-40	
6.818617e-01	-3.746650e-02	1.302694e-03	0.000000e+00	0.000000e+00	2.719423e+02	1.000000e-10	1.087769e+02	-1.772906e-01	0.000000e+00	2.900667e+02	1.805444e-05	1.815918e-02	8.377561e-05	4.714432e-02	1.367225e-40	
6.618224e-01	-3.935312e-02	1.302881e-03	0.000000e+00	0.000000e+00	2.719814e+02	1.000000e-10	1.087926e+02	-1.720186e-01	0.000000e+00	2.900669e+02	1.805445e-05	1.829006e-02	7.342186e-05	4.731728e-02	1.368007e-40	
6.415602e-01	-4.120057e-02	1.303061e-03	0.000000e+00	0.000000e+00	2.720204e+02	1.000000e-10	1.088082e+02	-1.667642e-01	0.000000e+00	2.900682e+02	1.805451e-05	1.845381e-02	7.437376e-05	4.753175e-02	1.368752e-40	
6.211213e-01	-4.300065e-02	1.303249e-03	0.000000e+00	0.000000e+00	2.720596e+02	1.000000e-10	1.088238e+02	-1.614838e-01	0.000000e+00	2.900682e+02	1.805451e-05	1.865195e-02	8.128677e-05	4.778969e-02	1.369543e-40	
6.005538e-01	-4.474509e-02	1.303428e-03	0.000000e+00	0.000000e+00	2.720989e+02	1.000000e-10	1.088396e+02	-1.561829e-01	0.000000e+00	2.900704e+02	1.805461e-05	1.888684e-02	8.923931e-05	4.809267e-02	1.370270e-40	
5.799069e-01	-4.642560e-02	1.303620e-03	0.000000e+00	0.000000e+00	2.721392e+02	1.000000e-10	1.088557e+02	-1.507507e-01	0.000000e+00	2.900705e+02	1.805462e-05	1.915694e-02	7.852336e-05	4.843887e-02	1.371076e-40	
5.592307e-01	-4.803399e-02	1.303810e-03	0.000000e+00	0.000000e+00	2.721803e+02	1.000000e-10	1.088721e+02	-1.452210e-01	0.000000e+00	2.900720e+02	1.805469e-05	1.945692e-02	7.719667e-05	4.882000e-02	1.371860e-40	
5.385754e-01	-4.956225e-02	1.304008e-03	0.000000e+00	0.000000e+00	2.722215e+02	1.000000e-10	1.088886e+02	-1.396594e-01	0.000000e+00	2.900721e+02	1.805470e-05	1.979602e-02	8.791575e-05	4.924729e-02	1.372690e-40	
5.179913e-01	-5.100267e-02	1.304203e-03	0.000000e+00	0.000000e+00	2.722639e+02	1.000000e-10	1.089056e+02	-1.339442e-01	0.000000e+00	2.900739e+02	1.805478e-05	2.018443e-02	8.778413e-05	4.973153e-02	1.373490e-40	
4.975276e-01	-5.234796e-02	1.304414e-03	0.000000e+00	0.000000e+00	2.723084e+02	1.000000e-10	1.089234e+02	-1.279484e-01	0.000000e+00	2.900743e+02	1.805480e-05	2.061532e-02	8.185392e-05	5.026357e-02	1.374377e-40	
4.772328e-01	-5.359135e-02	1.304627e-03	0.000000e+00	0.000000e+00	2.723540e+02	1.000000e-10	1.089416e+02	-1.218023e-01	0.000000e+00	2.900755e+02	1.805486e-05	2.108943e-02	6.496758e-05	5.084223e-02	1.375262e-40	
4.571535e-01	-5.472669e-02	1.304848e-03	0.000000e+00	0.000000e+00	2.724014e+02	1.000000e-10	1.089606e+02	-1.154199e-01	0.000000e+00	2.900768e+02	1.805492e-05	2.162749e-02	9.865639e-05	5.149088e-02	1.376180e-40	
4.373345e-01	-5.574856e-02	1.305086e-03	0.000000e+00	0.000000e+00	2.724537e+02	1.000000e-10	1.089815e+02	-1.083731e-01	0.000000e+00	2.900795e+02	1.805506e-05	2.220876e-02	9.394650e-05	5.218259e-02	1.377154e-40	
4.178183e-01	-5.665235e-02	1.305342e-03	0.000000e+00	0.000000e+00	2.725082e+02	1.000000e-10	1.090033e+02	-1.010302e-01	0.000000e+00	2.900807e+02	1.805511e-05	2.281560e-02	9.012260e-05	5.289570e-02	1.378221e-40	
3.986445e-01	-5.743434e-02	1.305609e-03	0.000000e+00	0.000000e+00	2.725660e+02	1.000000e-10	1.090264e+02	-9.324041e-02	0.000000e+00	2.900829e+02	1.805522e-05	2.346035e-02	7.581365e-05	5.364305e-02	1.379326e-40	
3.798501e-01	-5.809174e-02	1.305892e-03	0.000000e+00	0.000000e+00	2.726275e+02	1.000000e-10	1.090510e+02	-8.494804e-02	0.000000e+00	2.900855e+02	1.805535e-05	2.413804e-02	1.008818e-04	5.441779e-02	1.380492e-40	
3.614685e-01	-5.862275e-02	1.306187e-03	0.000000e+00	0.000000e+00	2.726917e+02	1.000000e-10	1.090767e+02	-7.629335e-02	0.000000e+00	2.900884e+02	1.805548e-05	2.485787e-02	9.329885e-05	5.522902e-02	1.381709e-40	
3.435301e-01	-5.902656e-02	1.306500e-03	0.000000e+00	0.000000e+00	2.727592e+02	1.000000e-10	1.091037e+02	-6.720528e-02	0.000000e+00	2.900905e+02	1.805559e-05	2.564690e-02	9.596543e-05	5.610507e-02	1.383010e-40	
3.260616e-01	-5.930334e-02	1.306837e-03	0.000000e+00	0.000000e+00	2.728324e+02	1.000000e-10	1.091330e+02	-5.733881e-02	0.000000e+00	2.900936e+02	1.805574e-05	2.650576e-02	8.190910e-05	5.704359e-02	1.384402e-40	
3.090864e-01	-5.945423e-02	1.307200e-03	0.000000e+00	0.000000e+00	2.729129e+02	1.000000e-10	1.091652e+02	-4.648545e-02	0.000000e+00	2.900986e+02	1.805598e-05	2.739213e-02	1.096780e-04	5.799678e-02	1.385887e-40	
2.926242e-01	-5.948129e-02	1.307587e-03	0.000000e+00	0.000000e+00	2.729979e+02	1.000000e-10	1.091992e+02	-3.502813e-02	0.000000e+00	2.901031e+02	1.805619e-05	2.828535e-02	1.073833e-04	5.894277e-02	1.387479e-40	
2.766912e-01	-5.938744e-02	1.307997e-03	0.000000e+00	0.000000e+00	2.730874e+02	1.000000e-10	1.092349e+02	-2.297841e-02	0.000000e+00	2.901072e+02	1.805639e-05	2.920116e-02	1.092862e-04	5.989803e-02	1.389172e-40	
2.613001e-01	-5.917639e-02	1.308420e-03	0.000000e+00	0.000000e+00	2.731796e+02	1.000000e-10	1.092718e+02	-1.054944e-02	0.000000e+00	2.901113e+02	1.805659e-05	3.018267e-02	1.029447e-04	6.090550e-02	1.390926e-40	
2.464604e-01	-5.885255e-02	1.308871e-03	0.000000e+00	0.000000e+00	2.732786e+02	1.000000e-10	1.093114e+02	2.796804e-03	0.000000e+00	2.901165e+02	1.805684e-05	3.126364e-02	1.178890e-04	6.199629e-02	1.392785e-40	
2.321784e-01	-5.842094e-02	1.309371e-03	0.000000e+00	0.000000e+00	2.733890e+02	1.000000e-10	1.093556e+02	1.767773e-02	0.000000e+00	2.901230e+02	1.805715e-05	3.236881e-02	1.179813e-04	6.309345e-02	1.394842e-40	
2.184572e-01	-5.788708e-02	1.309896e-03	0.000000e+00	0.000000e+00	2.735049e+02	1.000000e-10	1.094019e+02	3.328589e-02	0.000000e+00	2.901294e+02	1.805746e-05	3.344538e-02	1.204400e-04	6.414579e-02	1.397011e-40	
2.052973e-01	-5.725691e-02	1.310441e-03	0.000000e+00	0.000000e+00	2.736248e+02	1.000000e-10	1.094499e+02	4.944868e-02	0.000000e+00	2.901361e+02	1.805778e-05	3.453029e-02	1.177608e-04	6.519018e-02	1.399260e-40	
1.926964e-01	-5.653666e-02	1.310994e-03	0.000000e+00	0.000000e+00	2.737457e+02	1.000000e-10	1.094983e+02	6.574369e-02	0.000000e+00	2.901417e+02	1.805805e-05	3.572352e-02	1.350810e-04	6.631990e-02	1.401564e-40	
1.806499e-01	-5.573279e-02	1.311594e-03	0.000000e+00	0.000000e+00	2.738773e+02	1.000000e-10	1.095509e+02	8.347956e-02	0.000000e+00	2.901485e+02	1.805838e-05	3.705354e-02	1.300264e-04	6.755731e-02	1.404053e-40	
1.691512e-01	-5.485187e-02	1.312251e-03	0.000000e+00	0.000000e+00	2.740230e+02	1.000000e-10	1.096092e+02	1.031134e-01	0.000000e+00	2.901573e+02	1.805881e-05	3.835735e-02	1.343763e-04	6.875108e-02	1.406770e-40	
1.581914e-01	-5.390049e-02	1.312938e-03	0.000000e+00	0.000000e+00	2.741753e+02	1.000000e-10	1.096701e+02	1.236395e-01	0.000000e+00	2.901669e+02	1.805927e-05	3.952758e-02	1.288735e-04	6.980831e-02	1.409608e-40	
1.477603e-01	-5.288522e-02	1.313609e-03	0.000000e+00	0.000000e+00	2.743219e+02	1.000000e-10	1.097287e+02	1.433844e-01	0.000000e+00	2.901737e+02	1.805960e-05	4.075675e-02	1.440106e-04	7.090206e-02	1.412414e-40	
1.378460e-01	-5.181249e-02	1.314316e-03	0.000000e+00	0.000000e+00	2.744768e+02	1.000000e-10	1.097907e+02	1.642638e-01	0.000000e+00	2.901813e+02	1.805997e-05	4.222695e-02	1.340554e-04	7.218734e-02	1.415372e-40	
1.284353e-01	-5.068857e-02	1.315100e-03	0.000000e+00	0.000000e+00	2.746508e+02	1.000000e-10	1.098603e+02	1.877191e-01	0.000000e+00	2.901921e+02	1.806049e-05	4.371123e-02	1.392568e-04	7.346469e-02	1.418631e-40	
1.195142e-01	-4.951951e-02	1.315911e-03	0.000000e+00	0.000000e+00	2.748304e+02	1.000000e-10	1.099321e+02	2.119109e-01	0.000000e+00	2.902029e+02	1.806101e-05	4.504413e-02	1.250802e-04	7.459699e-02	1.422009e-40	
1.110677e-01	-4.831110e-02	1.316728e-03	0.000000e+00	0.000000e+00	2.750106e+02	1.000000e-10	1.100042e+02	2.362016e-01	0.000000e+00	2.902130e+02	1.806150e-05	4.636963e-02	1.515174e-04	7.570783e-02	1.425429e-40	
1.030802e-01	-4.706882e-02	1.317557e-03	0.000000e+00	0.000000e+00	2.751919e+02	1.000000e-10	1.100768e+02	2.606345e-01	0.000000e+00	2.902218e+02	1.806192e-05	4.790328e-02	1.380745e-04	7.697179e-02	1.428919e-40	
9.553564e-02	-4.579785e-02	1.318469e-03	0.000000e+00	0.000000e+00	2.753943e+02	1.000000e-10	1.101577e+02	2.879095e-01	0.000000e+00	2.902342e+02	1.806252e-05	4.950875e-02	1.432044e-04	7.827520e-02	1.432739e-40	
8.841752e-02	-4.450302e-02	1.319416e-03	0.000000e+00	0.000000e+00	2.756045e+02	1.000000e-10	1.102418e+02	3.162395e-01	0.000000e+00	2.902473e+02	1.806315e-05	5.093023e-02	1.295849e-04	7.941634e-02	1.436709e-40	
8.170928e-02	-4.318885e-02	1.320387e-03	0.000000e+00	0.000000e+00	2.758205e+02	1.000000e-10	1.103282e+02	3.453450e-01	0.000000e+00	2.902611e+02	1.806382e-05	5.221219e-02	1.469045e-04	8.043587e-02	1.440784e-40	
7.539426e-02	-4.185947e-02	1.321351e-03	0.000000e+00	0.000000e+00	2.760323e+02	1.000000e-10	1.104129e+02	3.738864e-01	0.000000e+00	2.902721e+02	1.806435e-05	5.356919e-02	1.332991e-04	8.150135e-02	1.444870e-40	
6.945589e-02	-4.051872e-02	1.322343e-03	0.000000e+00	0.000000e+00	2.762502e+02	1.000000e-10	1.105001e+02	4.032457e-01	0.000000e+00	2.902832e+02	1.806488e-05	5.524511e-02	1.396155e-04	8.279454e-02	1.449087e-40	
6.387774e-02	-3.917006e-02	1.323450e-03	0.000000e+00	0.000000e+00	2.764960e+02	1.000000e-10	1.105984e+02	4.363738e-01	0.000000e+00	2.902986e+02	1.806563e-05	5.687565e-02	1.321546e-04	8.403856e-02	1.453761e-40	
5.864363e-02	-3.781667e-02	1.324611e-03	0.000000e+00	0.000000e+00	2.767572e+02	1.000000e-10	1.107029e+02	4.715718e-01	0.000000e+00	2.903182e+02	1.806657e-05	5.788364e-02	1.364231e-04	8.481209e-02	1.458640e-40	
5.373771e-02	-3.646139e-02	1.325707e-03	0.000000e+00	0.000000e+00	2.769996e+02	1.000000e-10	1.107999e+02	5.042462e-01	0.000000e+00	2.903321e+02	1.806725e-05	5.865812e-02	1.278654e-04	8.540900e-02	1.463313e-40	
4.914453e-02	-3.510678e-02	1.326802e-03	0.000000e+00	0.000000e+00	2.772400e+02	1.000000e-10	1.108960e+02	5.366343e-01	0.000000e+00	2.903444e+02	1.806784e-05	5.993407e-02	1.312648e-04	8.636487e-02	1.468007e-40	
4.484906e-02	-3.375514e-02	1.328042e-03	0.000000e+00	0.000000e+00	2.775154e+02	1.000000e-10	1.110062e+02	5.737540e-01	0.000000e+00	2.903615e+02	1.806866e-05	6.121259e-02	1.280663e-04	8.731699e-02	1.473301e-40	
4.083675e-02	-3.240849e-02	1.329305e-03	0.000000e+00	0.000000e+00	2.777977e+02	1.000000e-10	1.111191e+02	6.117933e-01	0.000000e+00	2.903805e+02	1.806958e-05	6.183635e-02	1.210707e-04	8.779691e-02	1.478691e-40	
3.709360e-02	-3.106866e-02	1.330595e-03	0.000000e+00	0.000000e+00	2.780855e+02	1.000000e-10	1.112342e+02	6.505746e-01	0.000000e+00	2.903997e+02	1.807050e-05	6.186431e-02	1.149314e-04	8.785355e-02	1.484208e-40	
3.360613e-02	-2.973724e-02	1.331776e-03	0.000000e+00	0.000000e+00	2.783463e+02	1.000000e-10	1.113385e+02	6.857223e-01	0.000000e+00	2.904143e+02	1.807121e-05	6.199034e-02	1.111980e-04	8.797711e-02	1.489310e-40	
3.036143e-02	-2.841566e-02	1.333053e-03	0.000000e+00	0.000000e+00	2.786275e+02	1.000000e-10	1.114510e+02	7.236269e-01	0.000000e+00	2.904291e+02	1.807192e-05	6.259143e-02	1.148477e-04	8.843983e-02	1.494857e-40	
2.734716e-02	-2.710520e-02	1.334479e-03	0.000000e+00	0.000000e+00	2.789445e+02	1.000000e-10	1.115778e+02	7.663453e-01	0.000000e+00	2.904489e+02	1.807288e-05	6.234223e-02	9.164815e-05	8.830417e-02	1.501020e-40	
2.455157e-02	-2.580699e-02	1.335810e-03	0.000000e+00	0.000000e+00	2.792400e+02	1.000000e-10	1.116960e+02	8.061663e-01	0.000000e+00	2.904668e+02	1.807374e-05	6.106126e-02	9.119475e-05	8.742950e-02	1.506804e-40	
2.196347e-02	-2.452210e-02	1.337180e-03	0.000000e+00	0.000000e+00	2.795432e+02	1.000000e-10	1.118173e+02	8.470255e-01	0.000000e+00	2.904844e+02	1.807459e-05	5.916188e-02	7.973076e-05	8.609657e-02	1.512779e-40	
1.957226e-02	-2.325150e-02	1.338480e-03	0.000000e+00	0.000000e+00	2.798316e+02	1.000000e-10	1.119326e+02	8.858831e-01	0.000000e+00	2.905014e+02	1.807541e-05	5.641552e-02	7.771556e-05	8.410883e-02	1.518468e-40	
1.736790e-02	-2.199615e-02	1.339728e-03	0.000000e+00	0.000000e+00	2.801068e+02	1.000000e-10	1.120427e+02	9.229698e-01	0.000000e+00	2.905163e+02	1.807613e-05	5.311646e-02	5.202153e-05	8.164432e-02	1.523956e-40	
1.534085e-02	-2.075700e-02	1.340965e-03	0.000000e+00	0.000000e+00	2.803800e+02	1.000000e-10	1.121520e+02	9.597946e-01	0.000000e+00	2.905316e+02	1.807687e-05	4.886512e-02	5.235692e-05	7.833853e-02	1.529403e-40	
1.348213e-02	-1.953504e-02	1.342099e-03	0.000000e+00	0.000000e+00	2.806301e+02	1.000000e-10	1.122520e+02	9.934928e-01	0.000000e+00	2.905448e+02	1.807750e-05	4.323080e-02	3.422879e-05	7.370900e-02	1.534425e-40	
1.178319e-02	-1.833132e-02	1.343105e-03	0.000000e+00	0.000000e+00	2.808522e+02	1.000000e-10	1.123409e+02	1.023430e+00	0.000000e+00	2.905571e+02	1.807810e-05	3.619276e-02	3.030922e-05	6.746214e-02	1.538878e-40	
1.023592e-02	-1.714702e-02	1.343935e-03	0.000000e+00	0.000000e+00	2.810348e+02	1.000000e-10	1.124139e+02	1.048037e+00	0.000000e+00	2.905663e+02	1.807854e-05	2.757265e-02	8.777299e-06	5.889608e-02	1.542578e-40	
8.832571e-03	-1.598342e-02	1.344517e-03	0.000000e+00	0.000000e+00	2.811646e+02	1.000000e-10	1.124658e+02	1.065520e+00	0.000000e+00	2.905747e+02	1.807895e-05	1.749391e-02	8.190165e-06	4.691875e-02	1.545148e-40	
7.565698e-03	-1.484200e-02	1.344872e-03	0.000000e+00	0.000000e+00	2.812445e+02	1.000000e-10	1.124978e+02	1.076287e+00	0.000000e+00	2.905806e+02	1.807923e-05	5.850222e-03	-3.099198e-06	2.713368e-02	1.546709e-40	
6.428089e-03	-1.372438e-02	1.344997e-03	0.000000e+00	0.000000e+00	2.812747e+02	1.000000e-10	1.125099e+02	1.080364e+00	0.000000e+00	2.905849e+02	1.807944e-05	7.674955e-03	2.584802e-06	3.107720e-02	1.547233e-40	
5.412677e-03	-1.263238e-02	1.344760e-03	0.000000e+00	0.000000e+00	2.812260e+02	1.000000e-10	1.124904e+02	1.073798e+00	0.000000e+00	2.905856e+02	1.807947e-05	2.328943e-02	1.344767e-06	5.412631e-02	1.546141e-40	
4.512459e-03	-1.156799e-02	1.343938e-03	0.000000e+00	0.000000e+00	2.810521e+02	1.000000e-10	1.124208e+02	1.050367e+00	0.000000e+00	2.905837e+02	1.807938e-05	4.088042e-02	1.505238e-05	7.168336e-02	1.542389e-40	
3.720425e-03	-1.053330e-02	1.342765e-03	0.000000e+00	0.000000e+00	2.808023e+02	1.000000e-10	1.123209e+02	1.016699e+00	0.000000e+00	2.905790e+02	1.807915e-05	5.982336e-02	3.066954e-05	8.667084e-02	1.537071e-40	
3.029491e-03	-9.530503e-03	1.341195e-03	0.000000e+00	0.000000e+00	2.804670e+02	1.000000e-10	1.121868e+02	9.715149e-01	0.000000e+00	2.905719e+02	1.807881e-05	7.850655e-02	5.317349e-05	9.922150e-02	1.529985e-40	
2.432462e-03	-8.561743e-03	1.339651e-03	0.000000e+00	0.000000e+00	2.801377e+02	1.000000e-10	1.120551e+02	9.271336e-01	0.000000e+00	2.905650e+02	1.807848e-05	9.889029e-02	8.281041e-05	1.112883e-01	1.523043e-40	
1.922017e-03	-7.629071e-03	1.337607e-03	0.000000e+00	0.000000e+00	2.796952e+02	1.000000e-10	1.118781e+02	8.675105e-01	0.000000e+00	2.905495e+02	1.807773e-05	1.227680e-01	1.227061e-04	1.238982e-01	1.513956e-40	
1.490740e-03	-6.734321e-03	1.334968e-03	0.000000e+00	0.000000e+00	2.791218e+02	1.000000e-10	1.116487e+02	7.902323e-01	0.000000e+00	2.905271e+02	1.807665e-05	1.451551e-01	1.612868e-04	1.345867e-01	1.502319e-40	
1.131179e-03	-5.879016e-03	1.332254e-03	0.000000e+00	0.000000e+00	2.785307e+02	1.000000e-10	1.114123e+02	7.105809e-01	0.000000e+00	2.905024e+02	1.807546e-05	1.641783e-01	1.924832e-04	1.429883e-01	1.490437e-40	
8.359359e-04	-5.064288e-03	1.329542e-03	0.000000e+00	0.000000e+00	2.779396e+02	1.000000e-10	1.111758e+02	6.309122e-01	0.000000e+00	2.904771e+02	1.807424e-05	1.828030e-01	2.249869e-04	1.507284e-01	1.478642e-40	
