TITLE = "Visualization of the surface solution"
VARIABLES = "x","y","Conservative_1","Conservative_2","Conservative_3","Conservative_4","Conservative_5","Pressure","Pressure_Coefficient","Mach", "Temperature", "Laminar_Viscosity", "Skin_Friction_Coefficient", "Heat_Transfer", "Y_Plus", "Eddy_Viscosity"
ZONE NODES= 200, ELEMENTS= 200, DATAPACKING=POINT, ZONETYPE=FELINESEG
1.000000e+00	-2.006297e-14	1.296677e-04	0.000000e+00	0.000000e+00	2.709716e+01	1.000000e-10	1.083886e+01	-3.081069e-01	0.000000e+00	2.903724e+02	1.806919e-05	2.116904e-02	6.185031e-04	5.026080e-01	1.338809e-44	
9.900915e-01	-1.397070e-03	1.298175e-04	0.000000e+00	0.000000e+00	2.711750e+01	1.000000e-10	1.084700e+01	-2.806927e-01	0.000000e+00	2.902551e+02	1.806353e-05	7.402251e-02	-9.872065e-03	9.497888e-03	1.346284e-44	
9.796764e-01	-2.847068e-03	1.298120e-04	0.000000e+00	0.000000e+00	2.711128e+01	1.000000e-10	1.084451e+01	-2.890756e-01	0.000000e+00	2.902010e+02	1.806092e-05	5.998598e-02	4.770520e-03	8.550396e-03	1.346604e-44	
9.687423e-01	-4.349366e-03	1.298485e-04	0.000000e+00	0.000000e+00	2.711752e+01	1.000000e-10	1.084701e+01	-2.806688e-01	0.000000e+00	2.901861e+02	1.806020e-05	5.749396e-02	-7.162896e-04	8.372419e-03	1.348286e-44	
9.572780e-01	-5.903024e-03	1.298763e-04	0.000000e+00	0.000000e+00	2.712458e+01	1.000000e-10	1.084983e+01	-2.711442e-01	0.000000e+00	2.901996e+02	1.806085e-05	5.845765e-02	3.085414e-03	8.442894e-03	1.349287e-44	
9.452742e-01	-7.506773e-03	1.298973e-04	0.000000e+00	0.000000e+00	2.712995e+01	1.000000e-10	1.085198e+01	-2.639107e-01	0.000000e+00	2.902101e+02	1.806136e-05	5.847822e-02	2.173544e-03	8.444826e-03	1.350049e-44	
9.327234e-01	-9.158995e-03	1.299092e-04	0.000000e+00	0.000000e+00	2.713251e+01	1.000000e-10	1.085301e+01	-2.604575e-01	0.000000e+00	2.902108e+02	1.806139e-05	5.796640e-02	9.097250e-04	8.408159e-03	1.350542e-44	
9.196202e-01	-1.085771e-02	1.299285e-04	0.000000e+00	0.000000e+00	2.713694e+01	1.000000e-10	1.085478e+01	-2.544863e-01	0.000000e+00	2.902152e+02	1.806160e-05	5.742183e-02	5.796339e-04	8.369095e-03	1.351297e-44	
9.059613e-01	-1.260056e-02	1.299820e-04	0.000000e+00	0.000000e+00	2.714574e+01	1.000000e-10	1.085829e+01	-2.426389e-01	0.000000e+00	2.901897e+02	1.806037e-05	5.670700e-02	1.811860e-03	8.319116e-03	1.353804e-44	
8.917464e-01	-1.438481e-02	1.300027e-04	0.000000e+00	0.000000e+00	2.714999e+01	1.000000e-10	1.086000e+01	-2.369082e-01	0.000000e+00	2.901890e+02	1.806034e-05	5.625916e-02	1.379103e-03	8.286878e-03	1.354676e-44	
8.769775e-01	-1.620730e-02	1.300208e-04	0.000000e+00	0.000000e+00	2.715298e+01	1.000000e-10	1.086119e+01	-2.328741e-01	0.000000e+00	2.901805e+02	1.805993e-05	5.627528e-02	3.920455e-04	8.288834e-03	1.355528e-44	
8.616600e-01	-1.806450e-02	1.300388e-04	0.000000e+00	0.000000e+00	2.715712e+01	1.000000e-10	1.086285e+01	-2.273018e-01	0.000000e+00	2.901845e+02	1.806012e-05	5.621295e-02	2.857870e-04	8.284726e-03	1.356236e-44	
8.458022e-01	-1.995243e-02	1.300458e-04	0.000000e+00	0.000000e+00	2.715812e+01	1.000000e-10	1.086325e+01	-2.259548e-01	0.000000e+00	2.901796e+02	1.805989e-05	5.618627e-02	7.328636e-04	8.283091e-03	1.356578e-44	
8.294158e-01	-2.186671e-02	1.300633e-04	0.000000e+00	0.000000e+00	2.716222e+01	1.000000e-10	1.086489e+01	-2.204233e-01	0.000000e+00	2.901844e+02	1.806011e-05	5.621039e-02	5.891126e-04	8.285323e-03	1.357259e-44	
8.125161e-01	-2.380253e-02	1.300806e-04	0.000000e+00	0.000000e+00	2.716560e+01	1.000000e-10	1.086624e+01	-2.158728e-01	0.000000e+00	2.901818e+02	1.805999e-05	5.630200e-02	-1.398508e-04	8.292679e-03	1.358012e-44	
7.951217e-01	-2.575469e-02	1.300992e-04	0.000000e+00	0.000000e+00	2.716973e+01	1.000000e-10	1.086789e+01	-2.103022e-01	0.000000e+00	2.901846e+02	1.806013e-05	5.646004e-02	-7.891891e-04	8.304839e-03	1.358757e-44	
7.772549e-01	-2.771752e-02	1.301119e-04	0.000000e+00	0.000000e+00	2.717116e+01	1.000000e-10	1.086846e+01	-2.083813e-01	0.000000e+00	2.901716e+02	1.805950e-05	5.672006e-02	1.216941e-03	8.324638e-03	1.359428e-44	
7.589416e-01	-2.968498e-02	1.301298e-04	0.000000e+00	0.000000e+00	2.717533e+01	1.000000e-10	1.087013e+01	-2.027530e-01	0.000000e+00	2.901762e+02	1.805972e-05	5.705633e-02	5.016162e-04	8.349748e-03	1.360126e-44	
7.402113e-01	-3.165061e-02	1.301462e-04	0.000000e+00	0.000000e+00	2.717901e+01	1.000000e-10	1.087160e+01	-1.978007e-01	0.000000e+00	2.901789e+02	1.805985e-05	5.749851e-02	-1.718416e-04	8.382510e-03	1.360786e-44	
7.210966e-01	-3.360759e-02	1.301632e-04	0.000000e+00	0.000000e+00	2.718334e+01	1.000000e-10	1.087334e+01	-1.919593e-01	0.000000e+00	2.901873e+02	1.806026e-05	5.797026e-02	-2.610240e-04	8.417187e-03	1.361406e-44	
7.016337e-01	-3.554873e-02	1.301745e-04	0.000000e+00	0.000000e+00	2.718580e+01	1.000000e-10	1.087432e+01	-1.886427e-01	0.000000e+00	2.901883e+02	1.806031e-05	5.853184e-02	-1.016149e-04	8.458201e-03	1.361865e-44	
6.818617e-01	-3.746650e-02	1.301918e-04	0.000000e+00	0.000000e+00	2.719029e+01	1.000000e-10	1.087611e+01	-1.826022e-01	0.000000e+00	2.901975e+02	1.806075e-05	5.916799e-02	-1.268226e-04	8.504398e-03	1.362492e-44	
6.618224e-01	-3.935312e-02	1.302087e-04	0.000000e+00	0.000000e+00	2.719430e+01	1.000000e-10	1.087772e+01	-1.771884e-01	0.000000e+00	2.902028e+02	1.806100e-05	5.989738e-02	-6.610592e-04	8.557090e-03	1.363143e-44	
6.415602e-01	-4.120057e-02	1.302267e-04	0.000000e+00	0.000000e+00	2.719895e+01	1.000000e-10	1.087958e+01	-1.709328e-01	0.000000e+00	2.902121e+02	1.806145e-05	6.066395e-02	-5.877775e-04	8.612053e-03	1.363797e-44	
6.211213e-01	-4.300065e-02	1.302410e-04	0.000000e+00	0.000000e+00	2.720176e+01	1.000000e-10	1.088071e+01	-1.671369e-01	0.000000e+00	2.902103e+02	1.806137e-05	6.152826e-02	-1.345788e-04	8.673702e-03	1.364410e-44	
6.005538e-01	-4.474509e-02	1.302599e-04	0.000000e+00	0.000000e+00	2.720663e+01	1.000000e-10	1.088265e+01	-1.605823e-01	0.000000e+00	2.902202e+02	1.806184e-05	6.249007e-02	-1.713808e-04	8.741633e-03	1.365092e-44	
5.799069e-01	-4.642560e-02	1.302782e-04	0.000000e+00	0.000000e+00	2.721112e+01	1.000000e-10	1.088445e+01	-1.545297e-01	0.000000e+00	2.902272e+02	1.806218e-05	6.356207e-02	-6.001344e-04	8.816749e-03	1.365787e-44	
5.592307e-01	-4.803399e-02	1.302976e-04	0.000000e+00	0.000000e+00	2.721627e+01	1.000000e-10	1.088651e+01	-1.475831e-01	0.000000e+00	2.902391e+02	1.806276e-05	6.470777e-02	-3.959749e-04	8.896229e-03	1.366468e-44	
5.385754e-01	-4.956225e-02	1.303148e-04	0.000000e+00	0.000000e+00	2.722026e+01	1.000000e-10	1.088810e+01	-1.422063e-01	0.000000e+00	2.902432e+02	1.806295e-05	6.597670e-02	-6.014465e-04	8.983530e-03	1.367146e-44	
5.179913e-01	-5.100267e-02	1.303358e-04	0.000000e+00	0.000000e+00	2.722582e+01	1.000000e-10	1.089033e+01	-1.347145e-01	0.000000e+00	2.902557e+02	1.806356e-05	6.736545e-02	-3.651366e-04	9.078011e-03	1.367891e-44	
4.975276e-01	-5.234796e-02	1.303577e-04	0.000000e+00	0.000000e+00	2.723112e+01	1.000000e-10	1.089245e+01	-1.275703e-01	0.000000e+00	2.902636e+02	1.806394e-05	6.887912e-02	-7.381219e-04	9.180004e-03	1.368721e-44	
4.772328e-01	-5.359135e-02	1.303807e-04	0.000000e+00	0.000000e+00	2.723708e+01	1.000000e-10	1.089483e+01	-1.195371e-01	0.000000e+00	2.902759e+02	1.806453e-05	7.050038e-02	-2.468075e-04	9.287926e-03	1.369553e-44	
4.571535e-01	-5.472669e-02	1.304072e-04	0.000000e+00	0.000000e+00	2.724237e+01	1.000000e-10	1.089695e+01	-1.124169e-01	0.000000e+00	2.902732e+02	1.806440e-05	7.225304e-02	-7.664218e-04	9.403688e-03	1.370690e-44	
4.373345e-01	-5.574856e-02	1.304327e-04	0.000000e+00	0.000000e+00	2.724897e+01	1.000000e-10	1.089959e+01	-1.035153e-01	0.000000e+00	2.902867e+02	1.806505e-05	7.412936e-02	-3.898272e-04	9.525592e-03	1.371617e-44	
4.178183e-01	-5.665235e-02	1.304603e-04	0.000000e+00	0.000000e+00	2.725560e+01	1.000000e-10	1.090224e+01	-9.458005e-02	0.000000e+00	2.902960e+02	1.806550e-05	7.612381e-02	-6.525849e-04	9.653659e-03	1.372674e-44	
3.986445e-01	-5.743434e-02	1.304881e-04	0.000000e+00	0.000000e+00	2.726293e+01	1.000000e-10	1.090517e+01	-8.470842e-02	0.000000e+00	2.903121e+02	1.806628e-05	7.822334e-02	-3.707921e-05	9.786498e-03	1.373668e-44	
3.798501e-01	-5.809174e-02	1.305206e-04	0.000000e+00	0.000000e+00	2.727004e+01	1.000000e-10	1.090802e+01	-7.512009e-02	0.000000e+00	2.903155e+02	1.806644e-05	8.044858e-02	-8.724947e-04	9.925862e-03	1.374996e-44	
3.614685e-01	-5.862275e-02	1.305520e-04	0.000000e+00	0.000000e+00	2.727819e+01	1.000000e-10	1.091127e+01	-6.414770e-02	0.000000e+00	2.903325e+02	1.806726e-05	8.280591e-02	-1.428068e-04	1.007098e-02	1.376129e-44	
3.435301e-01	-5.902656e-02	1.305883e-04	0.000000e+00	0.000000e+00	2.728662e+01	1.000000e-10	1.091465e+01	-5.277554e-02	0.000000e+00	2.903415e+02	1.806770e-05	8.529419e-02	-4.962990e-04	1.022235e-02	1.377562e-44	
3.260616e-01	-5.930334e-02	1.306239e-04	0.000000e+00	0.000000e+00	2.729553e+01	1.000000e-10	1.091821e+01	-4.077779e-02	0.000000e+00	2.903571e+02	1.806845e-05	8.791393e-02	6.137442e-04	1.037912e-02	1.378893e-44	
3.090864e-01	-5.945423e-02	1.306768e-04	0.000000e+00	0.000000e+00	2.730550e+01	1.000000e-10	1.092220e+01	-2.734177e-02	0.000000e+00	2.903456e+02	1.806790e-05	9.064094e-02	-1.125232e-03	1.054131e-02	1.381246e-44	
2.926242e-01	-5.948129e-02	1.307167e-04	0.000000e+00	0.000000e+00	2.731547e+01	1.000000e-10	1.092619e+01	-1.390554e-02	0.000000e+00	2.903629e+02	1.806873e-05	9.349483e-02	-7.794055e-05	1.070711e-02	1.382744e-44	
2.766912e-01	-5.938744e-02	1.307642e-04	0.000000e+00	0.000000e+00	2.732629e+01	1.000000e-10	1.093052e+01	6.819615e-04	0.000000e+00	2.903724e+02	1.806919e-05	9.643983e-02	-4.764641e-04	1.087613e-02	1.384649e-44	
2.613001e-01	-5.917639e-02	1.308080e-04	0.000000e+00	0.000000e+00	2.733733e+01	1.000000e-10	1.093493e+01	1.555991e-02	0.000000e+00	2.903926e+02	1.807016e-05	9.950325e-02	8.282800e-04	1.104876e-02	1.386278e-44	
2.464604e-01	-5.885255e-02	1.308690e-04	0.000000e+00	0.000000e+00	2.734973e+01	1.000000e-10	1.093989e+01	3.227203e-02	0.000000e+00	2.903887e+02	1.806998e-05	1.026913e-01	-9.380024e-04	1.122709e-02	1.388906e-44	
2.321784e-01	-5.842094e-02	1.309180e-04	0.000000e+00	0.000000e+00	2.736193e+01	1.000000e-10	1.094477e+01	4.870652e-02	0.000000e+00	2.904096e+02	1.807098e-05	1.059953e-01	4.528490e-04	1.140775e-02	1.390752e-44	
2.184572e-01	-5.788708e-02	1.309801e-04	0.000000e+00	0.000000e+00	2.737550e+01	1.000000e-10	1.095020e+01	6.700019e-02	0.000000e+00	2.904159e+02	1.807129e-05	1.093376e-01	-2.063777e-04	1.158875e-02	1.393322e-44	
2.052973e-01	-5.725691e-02	1.310357e-04	0.000000e+00	0.000000e+00	2.738861e+01	1.000000e-10	1.095544e+01	8.465645e-02	0.000000e+00	2.904315e+02	1.807204e-05	1.128342e-01	1.140315e-03	1.177459e-02	1.395514e-44	
1.926964e-01	-5.653666e-02	1.311261e-04	0.000000e+00	0.000000e+00	2.740498e+01	1.000000e-10	1.096199e+01	1.067159e-01	0.000000e+00	2.904048e+02	1.807075e-05	1.164406e-01	-6.553550e-04	1.196624e-02	1.399663e-44	
1.806499e-01	-5.573279e-02	1.311876e-04	0.000000e+00	0.000000e+00	2.741949e+01	1.000000e-10	1.096780e+01	1.262756e-01	0.000000e+00	2.904225e+02	1.807160e-05	1.201895e-01	4.607146e-04	1.215961e-02	1.402090e-44	
1.691512e-01	-5.485187e-02	1.312654e-04	0.000000e+00	0.000000e+00	2.743625e+01	1.000000e-10	1.097450e+01	1.488666e-01	0.000000e+00	2.904277e+02	1.807186e-05	1.239618e-01	-3.129544e-04	1.235242e-02	1.405360e-44	
1.581914e-01	-5.390049e-02	1.313315e-04	0.000000e+00	0.000000e+00	2.745206e+01	1.000000e-10	1.098083e+01	1.701744e-01	0.000000e+00	2.904489e+02	1.807288e-05	1.278474e-01	1.091401e-03	1.254695e-02	1.407952e-44	
1.477603e-01	-5.288522e-02	1.314292e-04	0.000000e+00	0.000000e+00	2.747125e+01	1.000000e-10	1.098850e+01	1.960315e-01	0.000000e+00	2.904358e+02	1.807225e-05	1.317913e-01	-6.054470e-04	1.274417e-02	1.412292e-44	
1.378460e-01	-5.181249e-02	1.315006e-04	0.000000e+00	0.000000e+00	2.748822e+01	1.000000e-10	1.099529e+01	2.188985e-01	0.000000e+00	2.904574e+02	1.807329e-05	1.358563e-01	7.498729e-04	1.294195e-02	1.415116e-44	
1.284353e-01	-5.068857e-02	1.315952e-04	0.000000e+00	0.000000e+00	2.750813e+01	1.000000e-10	1.100325e+01	2.457236e-01	0.000000e+00	2.904588e+02	1.807336e-05	1.399941e-01	-1.801271e-04	1.314220e-02	1.419176e-44	
1.195142e-01	-4.951951e-02	1.316765e-04	0.000000e+00	0.000000e+00	2.752649e+01	1.000000e-10	1.101060e+01	2.704684e-01	0.000000e+00	2.904731e+02	1.807405e-05	1.442392e-01	5.714315e-04	1.334355e-02	1.422523e-44	
1.110677e-01	-4.831110e-02	1.317955e-04	0.000000e+00	0.000000e+00	2.754908e+01	1.000000e-10	1.101963e+01	3.009159e-01	0.000000e+00	2.904492e+02	1.807289e-05	1.483493e-01	-1.687231e-05	1.353926e-02	1.427946e-44	
1.030802e-01	-4.706882e-02	1.318816e-04	0.000000e+00	0.000000e+00	2.756862e+01	1.000000e-10	1.102745e+01	3.272459e-01	0.000000e+00	2.904654e+02	1.807367e-05	1.523709e-01	7.000734e-04	1.372540e-02	1.431496e-44	
9.553564e-02	-4.579785e-02	1.319936e-04	0.000000e+00	0.000000e+00	2.759194e+01	1.000000e-10	1.103678e+01	3.586790e-01	0.000000e+00	2.904645e+02	1.807363e-05	1.564016e-01	-2.624812e-04	1.391164e-02	1.436375e-44	
8.841752e-02	-4.450302e-02	1.320862e-04	0.000000e+00	0.000000e+00	2.761273e+01	1.000000e-10	1.104509e+01	3.866951e-01	0.000000e+00	2.904796e+02	1.807436e-05	1.606255e-01	5.042696e-04	1.410255e-02	1.440231e-44	
8.170928e-02	-4.318885e-02	1.322185e-04	0.000000e+00	0.000000e+00	2.763905e+01	1.000000e-10	1.105562e+01	4.221549e-01	0.000000e+00	2.904654e+02	1.807367e-05	1.645346e-01	-1.790404e-04	1.428075e-02	1.446183e-44	
7.539426e-02	-4.185947e-02	1.323174e-04	0.000000e+00	0.000000e+00	2.766110e+01	1.000000e-10	1.106444e+01	4.518693e-01	0.000000e+00	2.904799e+02	1.807437e-05	1.681072e-01	5.380503e-04	1.443972e-02	1.450342e-44	
6.945589e-02	-4.051872e-02	1.324463e-04	0.000000e+00	0.000000e+00	2.768774e+01	1.000000e-10	1.107510e+01	4.877747e-01	0.000000e+00	2.904766e+02	1.807422e-05	1.716054e-01	-3.512228e-04	1.459633e-02	1.456046e-44	
6.387774e-02	-3.917006e-02	1.325552e-04	0.000000e+00	0.000000e+00	2.771143e+01	1.000000e-10	1.108457e+01	5.196967e-01	0.000000e+00	2.904865e+02	1.807469e-05	1.751644e-01	-2.643154e-04	1.475248e-02	1.460721e-44	
5.864363e-02	-3.781667e-02	1.326848e-04	0.000000e+00	0.000000e+00	2.773858e+01	1.000000e-10	1.109543e+01	5.562830e-01	0.000000e+00	2.904869e+02	1.807471e-05	1.782920e-01	2.148870e-04	1.489075e-02	1.466449e-44	
5.373771e-02	-3.646139e-02	1.327986e-04	0.000000e+00	0.000000e+00	2.776348e+01	1.000000e-10	1.110539e+01	5.898395e-01	0.000000e+00	2.904985e+02	1.807527e-05	1.810308e-01	3.368612e-04	1.501052e-02	1.471346e-44	
4.914453e-02	-3.510678e-02	1.329387e-04	0.000000e+00	0.000000e+00	2.779297e+01	1.000000e-10	1.111719e+01	6.295872e-01	0.000000e+00	2.905006e+02	1.807537e-05	1.833665e-01	-3.055051e-04	1.511478e-02	1.477547e-44	
4.484906e-02	-3.375514e-02	1.330577e-04	0.000000e+00	0.000000e+00	2.781905e+01	1.000000e-10	1.112762e+01	6.647334e-01	0.000000e+00	2.905132e+02	1.807598e-05	1.854699e-01	-6.809636e-05	1.520734e-02	1.482692e-44	
4.083675e-02	-3.240849e-02	1.331958e-04	0.000000e+00	0.000000e+00	2.784868e+01	1.000000e-10	1.113947e+01	7.046652e-01	0.000000e+00	2.905212e+02	1.807636e-05	1.869454e-01	-2.114511e-04	1.527511e-02	1.488770e-44	
3.709360e-02	-3.106866e-02	1.333205e-04	0.000000e+00	0.000000e+00	2.787612e+01	1.000000e-10	1.115045e+01	7.416431e-01	0.000000e+00	2.905355e+02	1.807705e-05	1.875572e-01	1.159391e-04	1.530644e-02	1.494179e-44	
3.360613e-02	-2.973724e-02	1.334659e-04	0.000000e+00	0.000000e+00	2.790742e+01	1.000000e-10	1.116297e+01	7.838207e-01	0.000000e+00	2.905448e+02	1.807750e-05	1.872187e-01	-2.326410e-04	1.530032e-02	1.500602e-44	
3.036143e-02	-2.841566e-02	1.335955e-04	0.000000e+00	0.000000e+00	2.793607e+01	1.000000e-10	1.117443e+01	8.224288e-01	0.000000e+00	2.905609e+02	1.807828e-05	1.859190e-01	2.200215e-04	1.525358e-02	1.506245e-44	
2.734716e-02	-2.710520e-02	1.337256e-04	0.000000e+00	0.000000e+00	2.796459e+01	1.000000e-10	1.118584e+01	8.608659e-01	0.000000e+00	2.905745e+02	1.807894e-05	1.833689e-01	-5.962417e-04	1.515510e-02	1.511963e-44	
2.455157e-02	-2.580699e-02	1.338554e-04	0.000000e+00	0.000000e+00	2.799341e+01	1.000000e-10	1.119737e+01	8.997044e-01	0.000000e+00	2.905919e+02	1.807978e-05	1.795605e-01	2.674793e-05	1.500310e-02	1.517628e-44	
2.196347e-02	-2.452210e-02	1.339991e-04	0.000000e+00	0.000000e+00	2.802474e+01	1.000000e-10	1.120990e+01	9.419218e-01	0.000000e+00	2.906050e+02	1.808041e-05	1.737176e-01	-2.152111e-04	1.476397e-02	1.524003e-44	
1.957226e-02	-2.325150e-02	1.341266e-04	0.000000e+00	0.000000e+00	2.805303e+01	1.000000e-10	1.122121e+01	9.800401e-01	0.000000e+00	2.906219e+02	1.808122e-05	1.659785e-01	5.189593e-04	1.443711e-02	1.529602e-44	
1.736790e-02	-2.199615e-02	1.342597e-04	0.000000e+00	0.000000e+00	2.808153e+01	1.000000e-10	1.123261e+01	1.018451e+00	0.000000e+00	2.906289e+02	1.808156e-05	1.559082e-01	-6.374685e-04	1.399845e-02	1.535610e-44	
1.534085e-02	-2.075700e-02	1.343783e-04	0.000000e+00	0.000000e+00	2.810788e+01	1.000000e-10	1.124315e+01	1.053959e+00	0.000000e+00	2.906447e+02	1.808232e-05	1.432580e-01	2.738276e-04	1.342333e-02	1.540847e-44	
1.348213e-02	-1.953504e-02	1.345019e-04	0.000000e+00	0.000000e+00	2.813458e+01	1.000000e-10	1.125383e+01	1.089942e+00	0.000000e+00	2.906536e+02	1.808275e-05	1.273235e-01	-6.804107e-05	1.265972e-02	1.546416e-44	
1.178319e-02	-1.833132e-02	1.346055e-04	0.000000e+00	0.000000e+00	2.815732e+01	1.000000e-10	1.126293e+01	1.120594e+00	0.000000e+00	2.906646e+02	1.808328e-05	1.084171e-01	7.299913e-04	1.168558e-02	1.551047e-44	
1.023592e-02	-1.714702e-02	1.347014e-04	0.000000e+00	0.000000e+00	2.817688e+01	1.000000e-10	1.127075e+01	1.146942e+00	0.000000e+00	2.906594e+02	1.808303e-05	8.624096e-02	-6.559959e-04	1.042540e-02	1.555577e-44	
8.832571e-03	-1.598342e-02	1.347827e-04	0.000000e+00	0.000000e+00	2.819454e+01	1.000000e-10	1.127782e+01	1.170752e+00	0.000000e+00	2.906661e+02	1.808335e-05	6.044090e-02	1.896617e-04	8.729647e-03	1.559254e-44	
7.565698e-03	-1.484200e-02	1.348589e-04	0.000000e+00	0.000000e+00	2.821030e+01	1.000000e-10	1.128412e+01	1.191985e+00	0.000000e+00	2.906642e+02	1.808326e-05	3.024955e-02	-1.639351e-04	6.177097e-03	1.562809e-44	
6.428089e-03	-1.372438e-02	1.349059e-04	0.000000e+00	0.000000e+00	2.822021e+01	1.000000e-10	1.128808e+01	1.205341e+00	0.000000e+00	2.906651e+02	1.808331e-05	3.638952e-03	6.422390e-04	2.142663e-03	1.564971e-44	
5.412677e-03	-1.263238e-02	1.349440e-04	0.000000e+00	0.000000e+00	2.822670e+01	1.000000e-10	1.129068e+01	1.214089e+00	0.000000e+00	2.906498e+02	1.808257e-05	4.155832e-02	-4.647990e-04	7.241657e-03	1.566979e-44	
4.512459e-03	-1.156799e-02	1.349485e-04	0.000000e+00	0.000000e+00	2.822691e+01	1.000000e-10	1.129076e+01	1.214364e+00	0.000000e+00	2.906423e+02	1.808221e-05	8.330707e-02	2.857255e-04	1.025246e-02	1.567279e-44	
3.720425e-03	-1.053330e-02	1.349303e-04	0.000000e+00	0.000000e+00	2.822152e+01	1.000000e-10	1.128861e+01	1.207103e+00	0.000000e+00	2.906259e+02	1.808142e-05	1.277999e-01	-8.798888e-05	1.269707e-02	1.566649e-44	
3.029491e-03	-9.530503e-03	1.348842e-04	0.000000e+00	0.000000e+00	2.821041e+01	1.000000e-10	1.128416e+01	1.192132e+00	0.000000e+00	2.906108e+02	1.808069e-05	1.737292e-01	4.656930e-04	1.480059e-02	1.564696e-44	
2.432462e-03	-8.561743e-03	1.348126e-04	0.000000e+00	0.000000e+00	2.819278e+01	1.000000e-10	1.127711e+01	1.168374e+00	0.000000e+00	2.905836e+02	1.807937e-05	2.224233e-01	-2.844334e-04	1.674212e-02	1.561795e-44	
1.922017e-03	-7.629071e-03	1.347105e-04	0.000000e+00	0.000000e+00	2.816941e+01	1.000000e-10	1.126776e+01	1.136882e+00	0.000000e+00	2.905627e+02	1.807836e-05	2.733507e-01	2.737562e-04	1.855256e-02	1.557328e-44	
1.490740e-03	-6.734321e-03	1.345935e-04	0.000000e+00	0.000000e+00	2.814214e+01	1.000000e-10	1.125686e+01	1.100136e+00	0.000000e+00	2.905338e+02	1.807697e-05	3.249108e-01	-3.852946e-05	2.021794e-02	1.552290e-44	
1.131179e-03	-5.879016e-03	1.344407e-04	0.000000e+00	0.000000e+00	2.810759e+01	1.000000e-10	1.124303e+01	1.053566e+00	0.000000e+00	2.905068e+02	1.807567e-05	3.750864e-01	4.644177e-04	2.171076e-02	1.545584e-44	
8.359359e-04	-5.064288e-03	1.342747e-04	0.000000e+00	0.000000e+00	2.806940e+01	1.000000e-10	1.122776e+01	1.002111e+00	0.000000e+00	2.904709e+02	1.807394e-05	4.232696e-01	-9.177821e-05	2.304970e-02	1.538467e-44	
