TITLE = "Visualization of the surface solution"
VARIABLES = "x","y","Conservative_1","Conservative_2","Conservative_3","Conservative_4","Conservative_5","Pressure","Pressure_Coefficient","Mach", "Temperature", "Laminar_Viscosity", "Skin_Friction_Coefficient", "Heat_Transfer", "Y_Plus", "Eddy_Viscosity"
ZONE NODES= 200, ELEMENTS= 200, DATAPACKING=POINT, ZONETYPE=FELINESEG
1.000000e+00	-2.006297e-14	1.315237e+01	0.000000e+00	0.000000e+00	2.749286e+06	1.000000e-10	1.099714e+06	2.251457e-01	0.000000e+00	2.904553e+02	1.807319e-05	1.993113e-04	4.468660e-07	4.910602e+03	1.416239e-24	
9.900915e-01	-1.397070e-03	1.310135e+01	0.000000e+00	0.000000e+00	2.747865e+06	1.000000e-10	1.099146e+06	2.059978e-01	0.000000e+00	2.914357e+02	1.812044e-05	2.779748e-03	-5.201437e-05	1.844166e-01	1.383518e-24	
9.796764e-01	-2.847068e-03	1.312549e+01	0.000000e+00	0.000000e+00	2.746691e+06	1.000000e-10	1.098676e+06	1.901822e-01	0.000000e+00	2.907754e+02	1.808863e-05	1.797024e-03	-5.849585e-06	1.486747e-01	1.401104e-24	
9.687423e-01	-4.349366e-03	1.312547e+01	0.000000e+00	0.000000e+00	2.745496e+06	1.000000e-10	1.098198e+06	1.740777e-01	0.000000e+00	2.906495e+02	1.808255e-05	1.646413e-03	-5.695400e-07	1.423557e-01	1.402504e-24	
9.572780e-01	-5.903024e-03	1.312203e+01	0.000000e+00	0.000000e+00	2.744577e+06	1.000000e-10	1.097831e+06	1.616910e-01	0.000000e+00	2.906283e+02	1.808153e-05	1.647890e-03	1.199295e-05	1.424089e-01	1.401273e-24	
9.452742e-01	-7.506773e-03	1.311918e+01	0.000000e+00	0.000000e+00	2.743879e+06	1.000000e-10	1.097552e+06	1.522877e-01	0.000000e+00	2.906175e+02	1.808101e-05	1.683354e-03	1.009758e-05	1.439217e-01	1.400178e-24	
9.327234e-01	-9.158995e-03	1.311654e+01	0.000000e+00	0.000000e+00	2.743333e+06	1.000000e-10	1.097333e+06	1.449334e-01	0.000000e+00	2.906182e+02	1.808104e-05	1.725973e-03	9.898163e-06	1.457173e-01	1.399044e-24	
9.196202e-01	-1.085771e-02	1.311446e+01	0.000000e+00	0.000000e+00	2.742893e+06	1.000000e-10	1.097157e+06	1.389971e-01	0.000000e+00	2.906176e+02	1.808102e-05	1.761560e-03	9.530867e-06	1.472004e-01	1.398163e-24	
9.059613e-01	-1.260056e-02	1.311252e+01	0.000000e+00	0.000000e+00	2.742526e+06	1.000000e-10	1.097010e+06	1.340453e-01	0.000000e+00	2.906217e+02	1.808121e-05	1.787560e-03	1.210465e-05	1.482702e-01	1.397291e-24	
8.917464e-01	-1.438481e-02	1.311113e+01	0.000000e+00	0.000000e+00	2.742218e+06	1.000000e-10	1.096887e+06	1.299041e-01	0.000000e+00	2.906201e+02	1.808113e-05	1.809831e-03	1.219744e-05	1.491836e-01	1.396713e-24	
8.769775e-01	-1.620730e-02	1.310991e+01	0.000000e+00	0.000000e+00	2.741965e+06	1.000000e-10	1.096786e+06	1.264877e-01	0.000000e+00	2.906201e+02	1.808114e-05	1.830645e-03	1.260070e-05	1.500320e-01	1.396194e-24	
8.616600e-01	-1.806450e-02	1.310899e+01	0.000000e+00	0.000000e+00	2.741757e+06	1.000000e-10	1.096703e+06	1.236903e-01	0.000000e+00	2.906185e+02	1.808106e-05	1.848021e-03	1.298063e-05	1.507378e-01	1.395820e-24	
8.458022e-01	-1.995243e-02	1.310822e+01	0.000000e+00	0.000000e+00	2.741594e+06	1.000000e-10	1.096638e+06	1.214948e-01	0.000000e+00	2.906182e+02	1.808105e-05	1.863571e-03	1.357431e-05	1.513663e-01	1.395498e-24	
8.294158e-01	-2.186671e-02	1.310767e+01	0.000000e+00	0.000000e+00	2.741473e+06	1.000000e-10	1.096589e+06	1.198621e-01	0.000000e+00	2.906176e+02	1.808102e-05	1.877481e-03	1.402113e-05	1.519272e-01	1.395269e-24	
8.125161e-01	-2.380253e-02	1.310726e+01	0.000000e+00	0.000000e+00	2.741390e+06	1.000000e-10	1.096556e+06	1.187369e-01	0.000000e+00	2.906180e+02	1.808103e-05	1.890574e-03	1.453937e-05	1.524535e-01	1.395088e-24	
7.951217e-01	-2.575469e-02	1.310697e+01	0.000000e+00	0.000000e+00	2.741339e+06	1.000000e-10	1.096536e+06	1.180549e-01	0.000000e+00	2.906190e+02	1.808108e-05	1.902619e-03	1.500312e-05	1.529363e-01	1.394956e-24	
7.772549e-01	-2.771752e-02	1.310678e+01	0.000000e+00	0.000000e+00	2.741321e+06	1.000000e-10	1.096528e+06	1.178071e-01	0.000000e+00	2.906213e+02	1.808119e-05	1.914180e-03	1.560395e-05	1.533982e-01	1.394848e-24	
7.589416e-01	-2.968498e-02	1.310673e+01	0.000000e+00	0.000000e+00	2.741333e+06	1.000000e-10	1.096533e+06	1.179696e-01	0.000000e+00	2.906236e+02	1.808131e-05	1.924903e-03	1.620253e-05	1.538259e-01	1.394801e-24	
7.402113e-01	-3.165061e-02	1.310682e+01	0.000000e+00	0.000000e+00	2.741376e+06	1.000000e-10	1.096550e+06	1.185566e-01	0.000000e+00	2.906263e+02	1.808144e-05	1.934955e-03	1.664157e-05	1.542265e-01	1.394808e-24	
7.210966e-01	-3.360759e-02	1.310699e+01	0.000000e+00	0.000000e+00	2.741448e+06	1.000000e-10	1.096579e+06	1.195216e-01	0.000000e+00	2.906302e+02	1.808162e-05	1.944265e-03	1.740821e-05	1.545965e-01	1.394837e-24	
7.016337e-01	-3.554873e-02	1.310727e+01	0.000000e+00	0.000000e+00	2.741548e+06	1.000000e-10	1.096619e+06	1.208689e-01	0.000000e+00	2.906344e+02	1.808183e-05	1.953183e-03	1.744003e-05	1.549506e-01	1.394912e-24	
6.818617e-01	-3.746650e-02	1.310767e+01	0.000000e+00	0.000000e+00	2.741677e+06	1.000000e-10	1.096671e+06	1.226171e-01	0.000000e+00	2.906393e+02	1.808206e-05	1.961673e-03	1.833236e-05	1.552873e-01	1.395027e-24	
6.618224e-01	-3.935312e-02	1.310821e+01	0.000000e+00	0.000000e+00	2.741836e+06	1.000000e-10	1.096734e+06	1.247532e-01	0.000000e+00	2.906443e+02	1.808230e-05	1.969984e-03	1.871024e-05	1.556170e-01	1.395199e-24	
6.415602e-01	-4.120057e-02	1.310879e+01	0.000000e+00	0.000000e+00	2.742017e+06	1.000000e-10	1.096807e+06	1.271980e-01	0.000000e+00	2.906506e+02	1.808261e-05	1.978243e-03	1.982115e-05	1.559437e-01	1.395377e-24	
6.211213e-01	-4.300065e-02	1.310951e+01	0.000000e+00	0.000000e+00	2.742224e+06	1.000000e-10	1.096890e+06	1.299883e-01	0.000000e+00	2.906566e+02	1.808290e-05	1.986483e-03	1.889899e-05	1.562700e-01	1.395616e-24	
6.005538e-01	-4.474509e-02	1.311031e+01	0.000000e+00	0.000000e+00	2.742460e+06	1.000000e-10	1.096984e+06	1.331667e-01	0.000000e+00	2.906638e+02	1.808324e-05	1.994522e-03	2.017432e-05	1.565876e-01	1.395878e-24	
5.799069e-01	-4.642560e-02	1.311130e+01	0.000000e+00	0.000000e+00	2.742730e+06	1.000000e-10	1.097092e+06	1.368044e-01	0.000000e+00	2.906705e+02	1.808357e-05	2.002535e-03	2.038504e-05	1.569049e-01	1.396222e-24	
5.592307e-01	-4.803399e-02	1.311234e+01	0.000000e+00	0.000000e+00	2.743039e+06	1.000000e-10	1.097216e+06	1.409665e-01	0.000000e+00	2.906800e+02	1.808403e-05	2.010079e-03	2.183365e-05	1.572025e-01	1.396562e-24	
5.385754e-01	-4.956225e-02	1.311360e+01	0.000000e+00	0.000000e+00	2.743391e+06	1.000000e-10	1.097356e+06	1.457043e-01	0.000000e+00	2.906894e+02	1.808448e-05	2.017113e-03	2.083585e-05	1.574810e-01	1.396993e-24	
5.179913e-01	-5.100267e-02	1.311497e+01	0.000000e+00	0.000000e+00	2.743783e+06	1.000000e-10	1.097513e+06	1.509951e-01	0.000000e+00	2.907006e+02	1.808502e-05	2.023386e-03	2.247370e-05	1.577292e-01	1.397452e-24	
4.975276e-01	-5.234796e-02	1.311651e+01	0.000000e+00	0.000000e+00	2.744196e+06	1.000000e-10	1.097678e+06	1.565573e-01	0.000000e+00	2.907103e+02	1.808549e-05	2.029142e-03	2.259010e-05	1.579585e-01	1.397998e-24	
4.772328e-01	-5.359135e-02	1.311807e+01	0.000000e+00	0.000000e+00	2.744638e+06	1.000000e-10	1.097855e+06	1.625129e-01	0.000000e+00	2.907224e+02	1.808607e-05	2.034907e-03	2.456020e-05	1.581871e-01	1.398529e-24	
4.571535e-01	-5.472669e-02	1.312004e+01	0.000000e+00	0.000000e+00	2.745149e+06	1.000000e-10	1.098059e+06	1.693940e-01	0.000000e+00	2.907329e+02	1.808657e-05	2.040101e-03	2.162629e-05	1.583963e-01	1.399252e-24	
4.373345e-01	-5.574856e-02	1.312211e+01	0.000000e+00	0.000000e+00	2.745716e+06	1.000000e-10	1.098286e+06	1.770416e-01	0.000000e+00	2.907472e+02	1.808726e-05	2.044253e-03	2.388917e-05	1.585638e-01	1.399974e-24	
4.178183e-01	-5.665235e-02	1.312455e+01	0.000000e+00	0.000000e+00	2.746350e+06	1.000000e-10	1.098540e+06	1.855795e-01	0.000000e+00	2.907602e+02	1.808789e-05	2.047145e-03	2.379537e-05	1.586852e-01	1.400871e-24	
3.986445e-01	-5.743434e-02	1.312707e+01	0.000000e+00	0.000000e+00	2.747043e+06	1.000000e-10	1.098817e+06	1.949238e-01	0.000000e+00	2.907779e+02	1.808874e-05	2.048535e-03	2.617626e-05	1.587468e-01	1.401746e-24	
3.798501e-01	-5.809174e-02	1.312985e+01	0.000000e+00	0.000000e+00	2.747756e+06	1.000000e-10	1.099102e+06	2.045333e-01	0.000000e+00	2.907917e+02	1.808941e-05	2.048782e-03	2.355973e-05	1.587673e-01	1.402779e-24	
3.614685e-01	-5.862275e-02	1.313274e+01	0.000000e+00	0.000000e+00	2.748537e+06	1.000000e-10	1.099415e+06	2.150595e-01	0.000000e+00	2.908103e+02	1.809031e-05	2.048274e-03	2.611061e-05	1.587573e-01	1.403807e-24	
3.435301e-01	-5.902656e-02	1.313617e+01	0.000000e+00	0.000000e+00	2.749406e+06	1.000000e-10	1.099763e+06	2.267730e-01	0.000000e+00	2.908264e+02	1.809108e-05	2.046043e-03	2.574578e-05	1.586847e-01	1.405090e-24	
3.260616e-01	-5.930334e-02	1.313974e+01	0.000000e+00	0.000000e+00	2.750364e+06	1.000000e-10	1.100146e+06	2.396754e-01	0.000000e+00	2.908485e+02	1.809215e-05	2.040868e-03	2.875098e-05	1.584961e-01	1.406373e-24	
3.090864e-01	-5.945423e-02	1.314395e+01	0.000000e+00	0.000000e+00	2.751394e+06	1.000000e-10	1.100558e+06	2.535615e-01	0.000000e+00	2.908644e+02	1.809292e-05	2.033710e-03	2.361460e-05	1.582365e-01	1.407993e-24	
2.926242e-01	-5.948129e-02	1.314789e+01	0.000000e+00	0.000000e+00	2.752430e+06	1.000000e-10	1.100972e+06	2.675140e-01	0.000000e+00	2.908866e+02	1.809398e-05	2.028069e-03	2.661665e-05	1.580313e-01	1.409435e-24	
2.766912e-01	-5.938744e-02	1.315250e+01	0.000000e+00	0.000000e+00	2.753577e+06	1.000000e-10	1.101431e+06	2.829719e-01	0.000000e+00	2.909058e+02	1.809491e-05	2.020337e-03	2.602021e-05	1.577494e-01	1.411197e-24	
2.613001e-01	-5.917639e-02	1.315723e+01	0.000000e+00	0.000000e+00	2.754829e+06	1.000000e-10	1.101932e+06	2.998509e-01	0.000000e+00	2.909335e+02	1.809624e-05	2.007868e-03	2.892919e-05	1.572785e-01	1.412915e-24	
2.464604e-01	-5.885255e-02	1.316270e+01	0.000000e+00	0.000000e+00	2.756182e+06	1.000000e-10	1.102473e+06	3.180809e-01	0.000000e+00	2.909553e+02	1.809730e-05	1.991837e-03	2.506098e-05	1.566728e-01	1.415019e-24	
2.321784e-01	-5.842094e-02	1.316785e+01	0.000000e+00	0.000000e+00	2.757525e+06	1.000000e-10	1.103010e+06	3.361778e-01	0.000000e+00	2.909834e+02	1.809865e-05	1.974550e-03	2.792398e-05	1.560103e-01	1.416914e-24	
2.184572e-01	-5.788708e-02	1.317375e+01	0.000000e+00	0.000000e+00	2.758968e+06	1.000000e-10	1.103587e+06	3.556311e-01	0.000000e+00	2.910053e+02	1.809971e-05	1.955354e-03	2.704302e-05	1.552758e-01	1.419206e-24	
2.052973e-01	-5.725691e-02	1.317983e+01	0.000000e+00	0.000000e+00	2.760546e+06	1.000000e-10	1.104218e+06	3.768940e-01	0.000000e+00	2.910374e+02	1.810125e-05	1.932478e-03	2.975936e-05	1.543873e-01	1.421465e-24	
1.926964e-01	-5.653666e-02	1.318685e+01	0.000000e+00	0.000000e+00	2.762213e+06	1.000000e-10	1.104885e+06	3.993605e-01	0.000000e+00	2.910581e+02	1.810225e-05	1.904649e-03	2.399235e-05	1.533039e-01	1.424259e-24	
1.806499e-01	-5.573279e-02	1.319320e+01	0.000000e+00	0.000000e+00	2.763848e+06	1.000000e-10	1.105539e+06	4.213942e-01	0.000000e+00	2.910902e+02	1.810380e-05	1.875216e-03	2.643850e-05	1.521384e-01	1.426639e-24	
1.691512e-01	-5.485187e-02	1.320038e+01	0.000000e+00	0.000000e+00	2.765615e+06	1.000000e-10	1.106246e+06	4.451969e-01	0.000000e+00	2.911178e+02	1.810512e-05	1.842869e-03	2.530264e-05	1.508505e-01	1.429433e-24	
1.581914e-01	-5.390049e-02	1.320763e+01	0.000000e+00	0.000000e+00	2.767520e+06	1.000000e-10	1.107008e+06	4.708818e-01	0.000000e+00	2.911585e+02	1.810709e-05	1.805515e-03	2.724952e-05	1.493387e-01	1.432109e-24	
1.477603e-01	-5.288522e-02	1.321536e+01	0.000000e+00	0.000000e+00	2.769412e+06	1.000000e-10	1.107765e+06	4.963784e-01	0.000000e+00	2.911872e+02	1.810847e-05	1.763323e-03	2.339723e-05	1.476153e-01	1.435134e-24	
1.378460e-01	-5.181249e-02	1.322280e+01	0.000000e+00	0.000000e+00	2.771369e+06	1.000000e-10	1.108547e+06	5.227406e-01	0.000000e+00	2.912289e+02	1.811048e-05	1.718752e-03	2.538230e-05	1.457627e-01	1.437892e-24	
1.284353e-01	-5.068857e-02	1.323125e+01	0.000000e+00	0.000000e+00	2.773475e+06	1.000000e-10	1.109390e+06	5.511246e-01	0.000000e+00	2.912642e+02	1.811218e-05	1.668143e-03	2.412978e-05	1.436330e-01	1.441162e-24	
1.195142e-01	-4.951951e-02	1.323931e+01	0.000000e+00	0.000000e+00	2.775571e+06	1.000000e-10	1.110228e+06	5.793658e-01	0.000000e+00	2.913067e+02	1.811423e-05	1.612230e-03	2.589426e-05	1.412323e-01	1.444188e-24	
1.110677e-01	-4.831110e-02	1.324831e+01	0.000000e+00	0.000000e+00	2.777708e+06	1.000000e-10	1.111083e+06	6.081724e-01	0.000000e+00	2.913330e+02	1.811549e-05	1.552801e-03	2.092264e-05	1.386423e-01	1.447815e-24	
1.030802e-01	-4.706882e-02	1.325692e+01	0.000000e+00	0.000000e+00	2.779974e+06	1.000000e-10	1.111990e+06	6.387092e-01	0.000000e+00	2.913813e+02	1.811782e-05	1.488883e-03	2.251507e-05	1.357855e-01	1.451023e-24	
9.553564e-02	-4.579785e-02	1.326577e+01	0.000000e+00	0.000000e+00	2.782205e+06	1.000000e-10	1.112882e+06	6.687714e-01	0.000000e+00	2.914205e+02	1.811971e-05	1.419251e-03	2.126483e-05	1.326027e-01	1.454446e-24	
8.841752e-02	-4.450302e-02	1.327437e+01	0.000000e+00	0.000000e+00	2.784508e+06	1.000000e-10	1.113803e+06	6.998100e-01	0.000000e+00	2.914729e+02	1.812223e-05	1.345043e-03	2.213754e-05	1.291134e-01	1.457610e-24	
8.170928e-02	-4.318885e-02	1.328355e+01	0.000000e+00	0.000000e+00	2.786842e+06	1.000000e-10	1.114737e+06	7.312662e-01	0.000000e+00	2.915155e+02	1.812428e-05	1.264376e-03	1.943952e-05	1.252109e-01	1.461153e-24	
7.539426e-02	-4.185947e-02	1.329190e+01	0.000000e+00	0.000000e+00	2.789176e+06	1.000000e-10	1.115671e+06	7.627199e-01	0.000000e+00	2.915765e+02	1.812722e-05	1.178292e-03	1.961883e-05	1.208917e-01	1.464117e-24	
6.945589e-02	-4.051872e-02	1.330024e+01	0.000000e+00	0.000000e+00	2.791516e+06	1.000000e-10	1.116606e+06	7.942453e-01	0.000000e+00	2.916382e+02	1.813019e-05	1.088015e-03	1.840085e-05	1.161857e-01	1.467071e-24	
6.387774e-02	-3.917006e-02	1.330798e+01	0.000000e+00	0.000000e+00	2.793859e+06	1.000000e-10	1.117544e+06	8.258236e-01	0.000000e+00	2.917131e+02	1.813380e-05	9.932863e-04	1.762642e-05	1.110228e-01	1.469612e-24	
5.864363e-02	-3.781667e-02	1.331549e+01	0.000000e+00	0.000000e+00	2.796161e+06	1.000000e-10	1.118464e+06	8.568404e-01	0.000000e+00	2.917888e+02	1.813744e-05	8.944413e-04	1.710745e-05	1.053626e-01	1.472046e-24	
5.373771e-02	-3.646139e-02	1.332228e+01	0.000000e+00	0.000000e+00	2.798423e+06	1.000000e-10	1.119369e+06	8.873344e-01	0.000000e+00	2.918760e+02	1.814164e-05	7.920255e-04	1.476467e-05	9.914943e-02	1.474029e-24	
4.914453e-02	-3.510678e-02	1.332908e+01	0.000000e+00	0.000000e+00	2.800638e+06	1.000000e-10	1.120255e+06	9.171769e-01	0.000000e+00	2.919579e+02	1.814558e-05	6.879580e-04	1.342115e-05	9.240982e-02	1.476081e-24	
4.484906e-02	-3.375514e-02	1.333556e+01	0.000000e+00	0.000000e+00	2.802732e+06	1.000000e-10	1.121093e+06	9.453975e-01	0.000000e+00	2.920344e+02	1.814926e-05	5.877236e-04	9.754891e-06	8.541637e-02	1.478052e-24	
4.083675e-02	-3.240849e-02	1.334255e+01	0.000000e+00	0.000000e+00	2.804686e+06	1.000000e-10	1.121875e+06	9.717357e-01	0.000000e+00	2.920849e+02	1.815169e-05	4.971212e-04	9.902174e-06	7.856721e-02	1.480560e-24	
3.709360e-02	-3.106866e-02	1.334898e+01	0.000000e+00	0.000000e+00	2.806480e+06	1.000000e-10	1.122592e+06	9.959039e-01	0.000000e+00	2.921308e+02	1.815390e-05	4.194468e-04	8.411847e-06	7.217727e-02	1.482877e-24	
3.360613e-02	-2.973724e-02	1.335569e+01	0.000000e+00	0.000000e+00	2.808027e+06	1.000000e-10	1.123211e+06	1.016754e+00	0.000000e+00	2.921450e+02	1.815458e-05	3.507410e-04	7.795000e-06	6.601582e-02	1.485692e-24	
3.036143e-02	-2.841566e-02	1.336127e+01	0.000000e+00	0.000000e+00	2.809282e+06	1.000000e-10	1.123713e+06	1.033664e+00	0.000000e+00	2.921536e+02	1.815499e-05	2.901702e-04	8.544150e-06	6.005676e-02	1.488072e-24	
2.734716e-02	-2.710520e-02	1.336786e+01	0.000000e+00	0.000000e+00	2.810197e+06	1.000000e-10	1.124079e+06	1.045993e+00	0.000000e+00	2.921046e+02	1.815263e-05	2.439441e-04	7.073758e-06	5.508638e-02	1.491593e-24	
2.455157e-02	-2.580699e-02	1.337117e+01	0.000000e+00	0.000000e+00	2.810701e+06	1.000000e-10	1.124281e+06	1.052795e+00	0.000000e+00	2.920847e+02	1.815168e-05	2.349747e-04	8.455138e-06	5.407371e-02	1.493305e-24	
2.196347e-02	-2.452210e-02	1.337329e+01	0.000000e+00	0.000000e+00	2.810799e+06	1.000000e-10	1.124320e+06	1.054109e+00	0.000000e+00	2.920485e+02	1.814994e-05	3.836830e-04	7.917776e-06	6.910954e-02	1.494683e-24	
1.957226e-02	-2.325150e-02	1.337166e+01	0.000000e+00	0.000000e+00	2.810260e+06	1.000000e-10	1.124104e+06	1.046844e+00	0.000000e+00	2.920282e+02	1.814896e-05	3.503148e-04	7.288713e-06	6.603555e-02	1.494193e-24	
1.736790e-02	-2.199615e-02	1.336781e+01	0.000000e+00	0.000000e+00	2.809020e+06	1.000000e-10	1.123608e+06	1.030134e+00	0.000000e+00	2.919833e+02	1.814680e-05	5.415711e-04	6.986088e-06	8.210423e-02	1.493009e-24	
1.534085e-02	-2.075700e-02	1.336010e+01	0.000000e+00	0.000000e+00	2.806944e+06	1.000000e-10	1.122777e+06	1.002155e+00	0.000000e+00	2.919359e+02	1.814452e-05	7.521464e-04	5.848221e-06	9.674272e-02	1.490131e-24	
1.348213e-02	-1.953504e-02	1.334893e+01	0.000000e+00	0.000000e+00	2.803892e+06	1.000000e-10	1.121557e+06	9.610363e-01	0.000000e+00	2.918627e+02	1.814100e-05	1.007324e-03	5.330662e-06	1.119320e-01	1.486016e-24	
1.178319e-02	-1.833132e-02	1.333274e+01	0.000000e+00	0.000000e+00	2.799685e+06	1.000000e-10	1.119874e+06	9.043338e-01	0.000000e+00	2.917785e+02	1.813694e-05	1.322294e-03	3.985081e-06	1.281939e-01	1.479815e-24	
1.023592e-02	-1.714702e-02	1.331079e+01	0.000000e+00	0.000000e+00	2.794196e+06	1.000000e-10	1.117678e+06	8.303629e-01	0.000000e+00	2.916868e+02	1.813253e-05	1.711627e-03	5.138885e-06	1.457658e-01	1.471167e-24	
8.832571e-03	-1.598342e-02	1.328256e+01	0.000000e+00	0.000000e+00	2.787191e+06	1.000000e-10	1.114876e+06	7.359631e-01	0.000000e+00	2.915739e+02	1.812710e-05	2.192230e-03	3.797285e-06	1.648403e-01	1.460039e-24	
7.565698e-03	-1.484200e-02	1.324636e+01	0.000000e+00	0.000000e+00	2.778545e+06	1.000000e-10	1.111418e+06	6.194491e-01	0.000000e+00	2.914637e+02	1.812179e-05	2.781568e-03	3.823038e-06	1.854811e-01	1.445460e-24	
6.428089e-03	-1.372438e-02	1.320274e+01	0.000000e+00	0.000000e+00	2.768168e+06	1.000000e-10	1.107267e+06	4.796133e-01	0.000000e+00	2.913346e+02	1.811557e-05	3.490090e-03	2.997584e-06	2.074941e-01	1.427983e-24	
5.412677e-03	-1.263238e-02	1.314876e+01	0.000000e+00	0.000000e+00	2.755855e+06	1.000000e-10	1.102342e+06	3.136746e-01	0.000000e+00	2.912294e+02	1.811050e-05	4.323180e-03	4.507114e-06	2.305265e-01	1.405952e-24	
4.512459e-03	-1.156799e-02	1.308681e+01	0.000000e+00	0.000000e+00	2.741636e+06	1.000000e-10	1.096654e+06	1.220599e-01	0.000000e+00	2.910982e+02	1.810418e-05	5.269379e-03	4.181268e-06	2.539950e-01	1.381090e-24	
3.720425e-03	-1.053330e-02	1.301400e+01	0.000000e+00	0.000000e+00	2.725461e+06	1.000000e-10	1.090184e+06	-9.592529e-02	0.000000e+00	2.909998e+02	1.809944e-05	6.311319e-03	5.482288e-06	2.772731e-01	1.351673e-24	
3.029491e-03	-9.530503e-03	1.293378e+01	0.000000e+00	0.000000e+00	2.707441e+06	1.000000e-10	1.082976e+06	-3.387629e-01	0.000000e+00	2.908688e+02	1.809313e-05	7.413191e-03	5.590195e-06	2.996809e-01	1.320032e-24	
2.432462e-03	-8.561743e-03	1.284505e+01	0.000000e+00	0.000000e+00	2.687980e+06	1.000000e-10	1.075192e+06	-6.010182e-01	0.000000e+00	2.907728e+02	1.808850e-05	8.537984e-03	7.841614e-06	3.205903e-01	1.285167e-24	
1.922017e-03	-7.629071e-03	1.275187e+01	0.000000e+00	0.000000e+00	2.667407e+06	1.000000e-10	1.066963e+06	-8.782687e-01	0.000000e+00	2.906557e+02	1.808285e-05	9.665836e-03	8.662906e-06	3.399751e-01	1.249452e-24	
1.490740e-03	-6.734321e-03	1.265403e+01	0.000000e+00	0.000000e+00	2.645895e+06	1.000000e-10	1.058358e+06	-1.168169e+00	0.000000e+00	2.905409e+02	1.807731e-05	1.081421e-02	1.016617e-05	3.583316e-01	1.212657e-24	
1.131179e-03	-5.879016e-03	1.255406e+01	0.000000e+00	0.000000e+00	2.623815e+06	1.000000e-10	1.049526e+06	-1.465723e+00	0.000000e+00	2.904107e+02	1.807103e-05	1.195155e-02	1.121819e-05	3.753432e-01	1.176012e-24	
8.359359e-04	-5.064288e-03	1.245285e+01	0.000000e+00	0.000000e+00	2.601617e+06	1.000000e-10	1.040647e+06	-1.764857e+00	0.000000e+00	2.902942e+02	1.806541e-05	1.304740e-02	1.259131e-05	3.907110e-01	1.139606e-24	
