TITLE = "Visualization of the surface solution"
VARIABLES = "x","y","Conservative_1","Conservative_2","Conservative_3","Conservative_4","Conservative_5","Pressure","Pressure_Coefficient","Mach", "Temperature", "Laminar_Viscosity", "Skin_Friction_Coefficient", "Heat_Transfer", "Y_Plus", "Eddy_Viscosity"
ZONE NODES= 200, ELEMENTS= 200, DATAPACKING=POINT, ZONETYPE=FELINESEG
1.000000e+00	-2.006297e-14	1.312668e+00	0.000000e+00	0.000000e+00	2.746395e+05	1.000000e-10	1.098558e+05	1.861863e-01	0.000000e+00	2.907177e+02	1.808584e-05	1.911114e-04	1.114186e-06	4.800467e+02	1.402257e-28	
9.900915e-01	-1.397070e-03	1.310022e+00	0.000000e+00	0.000000e+00	2.746401e+05	1.000000e-10	1.098561e+05	1.862754e-01	0.000000e+00	2.913058e+02	1.811418e-05	3.403710e-03	3.475767e-05	2.040829e-01	1.384461e-28	
9.796764e-01	-2.847068e-03	1.311672e+00	0.000000e+00	0.000000e+00	2.745173e+05	1.000000e-10	1.098069e+05	1.697277e-01	0.000000e+00	2.908091e+02	1.809025e-05	2.786722e-03	1.040617e-05	1.850224e-01	1.396983e-28	
9.687423e-01	-4.349366e-03	1.312002e+00	0.000000e+00	0.000000e+00	2.744073e+05	1.000000e-10	1.097629e+05	1.548970e-01	0.000000e+00	2.906195e+02	1.808111e-05	2.377072e-03	3.856125e-06	1.709908e-01	1.400510e-28	
9.572780e-01	-5.903024e-03	1.311802e+00	0.000000e+00	0.000000e+00	2.743245e+05	1.000000e-10	1.097298e+05	1.437389e-01	0.000000e+00	2.905761e+02	1.807902e-05	2.311409e-03	1.807586e-05	1.686193e-01	1.400142e-28	
9.452742e-01	-7.506773e-03	1.311559e+00	0.000000e+00	0.000000e+00	2.742612e+05	1.000000e-10	1.097045e+05	1.352122e-01	0.000000e+00	2.905630e+02	1.807838e-05	2.338268e-03	1.490667e-05	1.695864e-01	1.399252e-28	
9.327234e-01	-9.158995e-03	1.311319e+00	0.000000e+00	0.000000e+00	2.742138e+05	1.000000e-10	1.096855e+05	1.288169e-01	0.000000e+00	2.905658e+02	1.807852e-05	2.385813e-03	1.526983e-05	1.712849e-01	1.398199e-28	
9.196202e-01	-1.085771e-02	1.311126e+00	0.000000e+00	0.000000e+00	2.741760e+05	1.000000e-10	1.096704e+05	1.237226e-01	0.000000e+00	2.905685e+02	1.807865e-05	2.433840e-03	1.547140e-05	1.729863e-01	1.397345e-28	
9.059613e-01	-1.260056e-02	1.310949e+00	0.000000e+00	0.000000e+00	2.741446e+05	1.000000e-10	1.096579e+05	1.195025e-01	0.000000e+00	2.905746e+02	1.807894e-05	2.474072e-03	1.968182e-05	1.743956e-01	1.396523e-28	
8.917464e-01	-1.438481e-02	1.310823e+00	0.000000e+00	0.000000e+00	2.741186e+05	1.000000e-10	1.096474e+05	1.159895e-01	0.000000e+00	2.905749e+02	1.807895e-05	2.508175e-03	2.031238e-05	1.755849e-01	1.395982e-28	
8.769775e-01	-1.620730e-02	1.310716e+00	0.000000e+00	0.000000e+00	2.740971e+05	1.000000e-10	1.096388e+05	1.130914e-01	0.000000e+00	2.905757e+02	1.807899e-05	2.537901e-03	2.102387e-05	1.766147e-01	1.395520e-28	
8.616600e-01	-1.806450e-02	1.310636e+00	0.000000e+00	0.000000e+00	2.740801e+05	1.000000e-10	1.096320e+05	1.107995e-01	0.000000e+00	2.905755e+02	1.807898e-05	2.563592e-03	2.198205e-05	1.775010e-01	1.395179e-28	
8.458022e-01	-1.995243e-02	1.310571e+00	0.000000e+00	0.000000e+00	2.740670e+05	1.000000e-10	1.096268e+05	1.090405e-01	0.000000e+00	2.905760e+02	1.807901e-05	2.586786e-03	2.281497e-05	1.782976e-01	1.394898e-28	
8.294158e-01	-2.186671e-02	1.310526e+00	0.000000e+00	0.000000e+00	2.740577e+05	1.000000e-10	1.096231e+05	1.077868e-01	0.000000e+00	2.905761e+02	1.807901e-05	2.607958e-03	2.382223e-05	1.790226e-01	1.394704e-28	
8.125161e-01	-2.380253e-02	1.310494e+00	0.000000e+00	0.000000e+00	2.740519e+05	1.000000e-10	1.096207e+05	1.069986e-01	0.000000e+00	2.905770e+02	1.807905e-05	2.627061e-03	2.474106e-05	1.796745e-01	1.394560e-28	
7.951217e-01	-2.575469e-02	1.310473e+00	0.000000e+00	0.000000e+00	2.740489e+05	1.000000e-10	1.096196e+05	1.066057e-01	0.000000e+00	2.905785e+02	1.807913e-05	2.645055e-03	2.595127e-05	1.802866e-01	1.394453e-28	
7.772549e-01	-2.771752e-02	1.310465e+00	0.000000e+00	0.000000e+00	2.740494e+05	1.000000e-10	1.096198e+05	1.066656e-01	0.000000e+00	2.905809e+02	1.807924e-05	2.662114e-03	2.637097e-05	1.808653e-01	1.394391e-28	
7.589416e-01	-2.968498e-02	1.310471e+00	0.000000e+00	0.000000e+00	2.740532e+05	1.000000e-10	1.096213e+05	1.071777e-01	0.000000e+00	2.905835e+02	1.807937e-05	2.678371e-03	2.779979e-05	1.814158e-01	1.394387e-28	
7.402113e-01	-3.165061e-02	1.310487e+00	0.000000e+00	0.000000e+00	2.740590e+05	1.000000e-10	1.096236e+05	1.079580e-01	0.000000e+00	2.905861e+02	1.807950e-05	2.693756e-03	2.858620e-05	1.819360e-01	1.394427e-28	
7.210966e-01	-3.360759e-02	1.310509e+00	0.000000e+00	0.000000e+00	2.740670e+05	1.000000e-10	1.096268e+05	1.090410e-01	0.000000e+00	2.905897e+02	1.807967e-05	2.708693e-03	3.019691e-05	1.824395e-01	1.394480e-28	
7.016337e-01	-3.554873e-02	1.310545e+00	0.000000e+00	0.000000e+00	2.740779e+05	1.000000e-10	1.096311e+05	1.105044e-01	0.000000e+00	2.905933e+02	1.807984e-05	2.723288e-03	3.012876e-05	1.829312e-01	1.394595e-28	
6.818617e-01	-3.746650e-02	1.310590e+00	0.000000e+00	0.000000e+00	2.740915e+05	1.000000e-10	1.096366e+05	1.123351e-01	0.000000e+00	2.905977e+02	1.808006e-05	2.737360e-03	3.178128e-05	1.834042e-01	1.394736e-28	
6.618224e-01	-3.935312e-02	1.310650e+00	0.000000e+00	0.000000e+00	2.741079e+05	1.000000e-10	1.096431e+05	1.145478e-01	0.000000e+00	2.906019e+02	1.808026e-05	2.751077e-03	3.240441e-05	1.838652e-01	1.394942e-28	
6.415602e-01	-4.120057e-02	1.310716e+00	0.000000e+00	0.000000e+00	2.741272e+05	1.000000e-10	1.096509e+05	1.171585e-01	0.000000e+00	2.906078e+02	1.808054e-05	2.764450e-03	3.437423e-05	1.843133e-01	1.395157e-28	
6.211213e-01	-4.300065e-02	1.310801e+00	0.000000e+00	0.000000e+00	2.741497e+05	1.000000e-10	1.096599e+05	1.201873e-01	0.000000e+00	2.906127e+02	1.808078e-05	2.777717e-03	3.281858e-05	1.847586e-01	1.395466e-28	
6.005538e-01	-4.474509e-02	1.310890e+00	0.000000e+00	0.000000e+00	2.741746e+05	1.000000e-10	1.096698e+05	1.235402e-01	0.000000e+00	2.906194e+02	1.808110e-05	2.791046e-03	3.490082e-05	1.852044e-01	1.395771e-28	
5.799069e-01	-4.642560e-02	1.310993e+00	0.000000e+00	0.000000e+00	2.742015e+05	1.000000e-10	1.096806e+05	1.271682e-01	0.000000e+00	2.906250e+02	1.808137e-05	2.803972e-03	3.528688e-05	1.856373e-01	1.396148e-28	
5.592307e-01	-4.803399e-02	1.311102e+00	0.000000e+00	0.000000e+00	2.742317e+05	1.000000e-10	1.096927e+05	1.312310e-01	0.000000e+00	2.906330e+02	1.808176e-05	2.817319e-03	3.764982e-05	1.860823e-01	1.396520e-28	
5.385754e-01	-4.956225e-02	1.311234e+00	0.000000e+00	0.000000e+00	2.742658e+05	1.000000e-10	1.097063e+05	1.358331e-01	0.000000e+00	2.906398e+02	1.808209e-05	2.830738e-03	3.596278e-05	1.865309e-01	1.397007e-28	
5.179913e-01	-5.100267e-02	1.311378e+00	0.000000e+00	0.000000e+00	2.743049e+05	1.000000e-10	1.097219e+05	1.410940e-01	0.000000e+00	2.906492e+02	1.808254e-05	2.843638e-03	3.851542e-05	1.869611e-01	1.397518e-28	
4.975276e-01	-5.234796e-02	1.311549e+00	0.000000e+00	0.000000e+00	2.743483e+05	1.000000e-10	1.097393e+05	1.469531e-01	0.000000e+00	2.906575e+02	1.808294e-05	2.855680e-03	3.862653e-05	1.873646e-01	1.398150e-28	
4.772328e-01	-5.359135e-02	1.311723e+00	0.000000e+00	0.000000e+00	2.743952e+05	1.000000e-10	1.097581e+05	1.532708e-01	0.000000e+00	2.906684e+02	1.808347e-05	2.866755e-03	4.160896e-05	1.877346e-01	1.398774e-28	
4.571535e-01	-5.472669e-02	1.311926e+00	0.000000e+00	0.000000e+00	2.744443e+05	1.000000e-10	1.097777e+05	1.598924e-01	0.000000e+00	2.906755e+02	1.808381e-05	2.877761e-03	3.727984e-05	1.881056e-01	1.399561e-28	
4.373345e-01	-5.574856e-02	1.312136e+00	0.000000e+00	0.000000e+00	2.744995e+05	1.000000e-10	1.097998e+05	1.673185e-01	0.000000e+00	2.906873e+02	1.808438e-05	2.889166e-03	4.036259e-05	1.884871e-01	1.400323e-28	
4.178183e-01	-5.665235e-02	1.312385e+00	0.000000e+00	0.000000e+00	2.745613e+05	1.000000e-10	1.098245e+05	1.756488e-01	0.000000e+00	2.906978e+02	1.808488e-05	2.899408e-03	4.006142e-05	1.888335e-01	1.401267e-28	
3.986445e-01	-5.743434e-02	1.312646e+00	0.000000e+00	0.000000e+00	2.746304e+05	1.000000e-10	1.098522e+05	1.849713e-01	0.000000e+00	2.907130e+02	1.808562e-05	2.907305e-03	4.344661e-05	1.891016e-01	1.402213e-28	
3.798501e-01	-5.809174e-02	1.312952e+00	0.000000e+00	0.000000e+00	2.747055e+05	1.000000e-10	1.098822e+05	1.950790e-01	0.000000e+00	2.907248e+02	1.808619e-05	2.911810e-03	3.959040e-05	1.892641e-01	1.403385e-28	
3.614685e-01	-5.862275e-02	1.313245e+00	0.000000e+00	0.000000e+00	2.747814e+05	1.000000e-10	1.099126e+05	2.053113e-01	0.000000e+00	2.907401e+02	1.808692e-05	2.914903e-03	4.301119e-05	1.893781e-01	1.404470e-28	
3.435301e-01	-5.902656e-02	1.313594e+00	0.000000e+00	0.000000e+00	2.748664e+05	1.000000e-10	1.099466e+05	2.167673e-01	0.000000e+00	2.907529e+02	1.808754e-05	2.917146e-03	4.217072e-05	1.894696e-01	1.405816e-28	
3.260616e-01	-5.930334e-02	1.313961e+00	0.000000e+00	0.000000e+00	2.749608e+05	1.000000e-10	1.099843e+05	2.294857e-01	0.000000e+00	2.907715e+02	1.808843e-05	2.915853e-03	4.591832e-05	1.894447e-01	1.407181e-28	
3.090864e-01	-5.945423e-02	1.314401e+00	0.000000e+00	0.000000e+00	2.750643e+05	1.000000e-10	1.100257e+05	2.434365e-01	0.000000e+00	2.907836e+02	1.808902e-05	2.910877e-03	3.893209e-05	1.893086e-01	1.408929e-28	
2.926242e-01	-5.948129e-02	1.314810e+00	0.000000e+00	0.000000e+00	2.751679e+05	1.000000e-10	1.100671e+05	2.573932e-01	0.000000e+00	2.908025e+02	1.808993e-05	2.906029e-03	4.240216e-05	1.891708e-01	1.410471e-28	
2.766912e-01	-5.938744e-02	1.315273e+00	0.000000e+00	0.000000e+00	2.752794e+05	1.000000e-10	1.101118e+05	2.724292e-01	0.000000e+00	2.908182e+02	1.809069e-05	2.900455e-03	4.109810e-05	1.890146e-01	1.412279e-28	
2.613001e-01	-5.917639e-02	1.315757e+00	0.000000e+00	0.000000e+00	2.754034e+05	1.000000e-10	1.101614e+05	2.891367e-01	0.000000e+00	2.908421e+02	1.809184e-05	2.889369e-03	4.454428e-05	1.886757e-01	1.414087e-28	
2.464604e-01	-5.885255e-02	1.316320e+00	0.000000e+00	0.000000e+00	2.755387e+05	1.000000e-10	1.102155e+05	3.073670e-01	0.000000e+00	2.908605e+02	1.809273e-05	2.869272e-03	3.923323e-05	1.880494e-01	1.416302e-28	
2.321784e-01	-5.842094e-02	1.316845e+00	0.000000e+00	0.000000e+00	2.756718e+05	1.000000e-10	1.102687e+05	3.253081e-01	0.000000e+00	2.908850e+02	1.809391e-05	2.846198e-03	4.231657e-05	1.873169e-01	1.418285e-28	
2.184572e-01	-5.788708e-02	1.317440e+00	0.000000e+00	0.000000e+00	2.758158e+05	1.000000e-10	1.103263e+05	3.447165e-01	0.000000e+00	2.909055e+02	1.809490e-05	2.822071e-03	4.059706e-05	1.865532e-01	1.420616e-28	
2.052973e-01	-5.725691e-02	1.318057e+00	0.000000e+00	0.000000e+00	2.759740e+05	1.000000e-10	1.103896e+05	3.660271e-01	0.000000e+00	2.909361e+02	1.809637e-05	2.791336e-03	4.380295e-05	1.855629e-01	1.422930e-28	
1.926964e-01	-5.653666e-02	1.318746e+00	0.000000e+00	0.000000e+00	2.761375e+05	1.000000e-10	1.104550e+05	3.880591e-01	0.000000e+00	2.909563e+02	1.809734e-05	2.751648e-03	3.601369e-05	1.842772e-01	1.425679e-28	
1.806499e-01	-5.573279e-02	1.319380e+00	0.000000e+00	0.000000e+00	2.763006e+05	1.000000e-10	1.105202e+05	4.100434e-01	0.000000e+00	2.909883e+02	1.809888e-05	2.709326e-03	3.877079e-05	1.828829e-01	1.428057e-28	
1.691512e-01	-5.485187e-02	1.320087e+00	0.000000e+00	0.000000e+00	2.764789e+05	1.000000e-10	1.105916e+05	4.340687e-01	0.000000e+00	2.910202e+02	1.810042e-05	2.662870e-03	3.695861e-05	1.813413e-01	1.430753e-28	
1.581914e-01	-5.390049e-02	1.320791e+00	0.000000e+00	0.000000e+00	2.766673e+05	1.000000e-10	1.106669e+05	4.594618e-01	0.000000e+00	2.910633e+02	1.810250e-05	2.606556e-03	3.956989e-05	1.794409e-01	1.433314e-28	
1.477603e-01	-5.288522e-02	1.321521e+00	0.000000e+00	0.000000e+00	2.768528e+05	1.000000e-10	1.107411e+05	4.844606e-01	0.000000e+00	2.910975e+02	1.810415e-05	2.544500e-03	3.402672e-05	1.773248e-01	1.436093e-28	
1.378460e-01	-5.181249e-02	1.322255e+00	0.000000e+00	0.000000e+00	2.770522e+05	1.000000e-10	1.108209e+05	5.113303e-01	0.000000e+00	2.911455e+02	1.810646e-05	2.479740e-03	3.665220e-05	1.750800e-01	1.438734e-28	
1.284353e-01	-5.068857e-02	1.323050e+00	0.000000e+00	0.000000e+00	2.772599e+05	1.000000e-10	1.109040e+05	5.393244e-01	0.000000e+00	2.911886e+02	1.810854e-05	2.405330e-03	3.471854e-05	1.724652e-01	1.441703e-28	
1.195142e-01	-4.951951e-02	1.323814e+00	0.000000e+00	0.000000e+00	2.774659e+05	1.000000e-10	1.109864e+05	5.670816e-01	0.000000e+00	2.912368e+02	1.811086e-05	2.327410e-03	3.671629e-05	1.696759e-01	1.444477e-28	
1.110677e-01	-4.831110e-02	1.324694e+00	0.000000e+00	0.000000e+00	2.776883e+05	1.000000e-10	1.110753e+05	5.970577e-01	0.000000e+00	2.912767e+02	1.811278e-05	2.242518e-03	3.068453e-05	1.665904e-01	1.447860e-28	
1.030802e-01	-4.706882e-02	1.325494e+00	0.000000e+00	0.000000e+00	2.779058e+05	1.000000e-10	1.111623e+05	6.263571e-01	0.000000e+00	2.913288e+02	1.811529e-05	2.150406e-03	3.138526e-05	1.631598e-01	1.450758e-28	
9.553564e-02	-4.579785e-02	1.326351e+00	0.000000e+00	0.000000e+00	2.781319e+05	1.000000e-10	1.112528e+05	6.568361e-01	0.000000e+00	2.913776e+02	1.811764e-05	2.055727e-03	2.946917e-05	1.595584e-01	1.453947e-28	
8.841752e-02	-4.450302e-02	1.327202e+00	0.000000e+00	0.000000e+00	2.783637e+05	1.000000e-10	1.113455e+05	6.880739e-01	0.000000e+00	2.914333e+02	1.812032e-05	1.955431e-03	2.900369e-05	1.556443e-01	1.457037e-28	
8.170928e-02	-4.318885e-02	1.328095e+00	0.000000e+00	0.000000e+00	2.785938e+05	1.000000e-10	1.114375e+05	7.190788e-01	0.000000e+00	2.914781e+02	1.812248e-05	1.854654e-03	2.605904e-05	1.516134e-01	1.460437e-28	
7.539426e-02	-4.185947e-02	1.328982e+00	0.000000e+00	0.000000e+00	2.788317e+05	1.000000e-10	1.115327e+05	7.511431e-01	0.000000e+00	2.915323e+02	1.812509e-05	1.755340e-03	2.548969e-05	1.475262e-01	1.463713e-28	
6.945589e-02	-4.051872e-02	1.329906e+00	0.000000e+00	0.000000e+00	2.790625e+05	1.000000e-10	1.116250e+05	7.822478e-01	0.000000e+00	2.915709e+02	1.812695e-05	1.660743e-03	2.371327e-05	1.435312e-01	1.467337e-28	
6.387774e-02	-3.917006e-02	1.330859e+00	0.000000e+00	0.000000e+00	2.792994e+05	1.000000e-10	1.117198e+05	8.141676e-01	0.000000e+00	2.916094e+02	1.812880e-05	1.572080e-03	2.386972e-05	1.396830e-01	1.471096e-28	
5.864363e-02	-3.781667e-02	1.331905e+00	0.000000e+00	0.000000e+00	2.795284e+05	1.000000e-10	1.118114e+05	8.450327e-01	0.000000e+00	2.916193e+02	1.812928e-05	1.486800e-03	1.988777e-05	1.358912e-01	1.475609e-28	
5.373771e-02	-3.646139e-02	1.332871e+00	0.000000e+00	0.000000e+00	2.797577e+05	1.000000e-10	1.119031e+05	8.759265e-01	0.000000e+00	2.916471e+02	1.813062e-05	1.404991e-03	2.102721e-05	1.321378e-01	1.479563e-28	
4.914453e-02	-3.510678e-02	1.333910e+00	0.000000e+00	0.000000e+00	2.799826e+05	1.000000e-10	1.119930e+05	9.062317e-01	0.000000e+00	2.916540e+02	1.813095e-05	1.317464e-03	1.956481e-05	1.280033e-01	1.484102e-28	
4.484906e-02	-3.375514e-02	1.334889e+00	0.000000e+00	0.000000e+00	2.801941e+05	1.000000e-10	1.120776e+05	9.347355e-01	0.000000e+00	2.916603e+02	1.813126e-05	1.223993e-03	2.083011e-05	1.234222e-01	1.488388e-28	
4.083675e-02	-3.240849e-02	1.335959e+00	0.000000e+00	0.000000e+00	2.803963e+05	1.000000e-10	1.121585e+05	9.619912e-01	0.000000e+00	2.916370e+02	1.813013e-05	1.120763e-03	1.742699e-05	1.181575e-01	1.493444e-28	
3.709360e-02	-3.106866e-02	1.336840e+00	0.000000e+00	0.000000e+00	2.805792e+05	1.000000e-10	1.122317e+05	9.866396e-01	0.000000e+00	2.916350e+02	1.813004e-05	1.006567e-03	1.865005e-05	1.120138e-01	1.497409e-28	
3.360613e-02	-2.973724e-02	1.337781e+00	0.000000e+00	0.000000e+00	2.807416e+05	1.000000e-10	1.122966e+05	1.008519e+00	0.000000e+00	2.915986e+02	1.812829e-05	8.815289e-04	1.736534e-05	1.048728e-01	1.502062e-28	
3.036143e-02	-2.841566e-02	1.338582e+00	0.000000e+00	0.000000e+00	2.808761e+05	1.000000e-10	1.123505e+05	1.026651e+00	0.000000e+00	2.915636e+02	1.812660e-05	7.477619e-04	1.817317e-05	9.662657e-02	1.506085e-28	
2.734716e-02	-2.710520e-02	1.339497e+00	0.000000e+00	0.000000e+00	2.809763e+05	1.000000e-10	1.123905e+05	1.040146e+00	0.000000e+00	2.914683e+02	1.812201e-05	5.915878e-04	1.536456e-05	8.599690e-02	1.511355e-28	
2.455157e-02	-2.580699e-02	1.340052e+00	0.000000e+00	0.000000e+00	2.810407e+05	1.000000e-10	1.124163e+05	1.048833e+00	0.000000e+00	2.914145e+02	1.811942e-05	4.489710e-04	1.539640e-05	7.494353e-02	1.514509e-28	
2.196347e-02	-2.452210e-02	1.340413e+00	0.000000e+00	0.000000e+00	2.810614e+05	1.000000e-10	1.124246e+05	1.051618e+00	0.000000e+00	2.913575e+02	1.811668e-05	5.461000e-04	1.416674e-05	8.267710e-02	1.516829e-28	
1.957226e-02	-2.325150e-02	1.340312e+00	0.000000e+00	0.000000e+00	2.810229e+05	1.000000e-10	1.124092e+05	1.046427e+00	0.000000e+00	2.913395e+02	1.811581e-05	8.085606e-04	1.227031e-05	1.006027e-01	1.516591e-28	
1.736790e-02	-2.199615e-02	1.339897e+00	0.000000e+00	0.000000e+00	2.809124e+05	1.000000e-10	1.123650e+05	1.031537e+00	0.000000e+00	2.913152e+02	1.811464e-05	1.235815e-03	1.237002e-05	1.243629e-01	1.515008e-28	
1.534085e-02	-2.075700e-02	1.339130e+00	0.000000e+00	0.000000e+00	2.807226e+05	1.000000e-10	1.122891e+05	1.005966e+00	0.000000e+00	2.912851e+02	1.811319e-05	1.742109e-03	1.033839e-05	1.476258e-01	1.511909e-28	
1.348213e-02	-1.953504e-02	1.337939e+00	0.000000e+00	0.000000e+00	2.804347e+05	1.000000e-10	1.121739e+05	9.671577e-01	0.000000e+00	2.912454e+02	1.811127e-05	2.357338e-03	9.892722e-06	1.716674e-01	1.507015e-28	
1.178319e-02	-1.833132e-02	1.336255e+00	0.000000e+00	0.000000e+00	2.800371e+05	1.000000e-10	1.120149e+05	9.135844e-01	0.000000e+00	2.911991e+02	1.810904e-05	3.091334e-03	8.286322e-06	1.964851e-01	1.499995e-28	
1.023592e-02	-1.714702e-02	1.333896e+00	0.000000e+00	0.000000e+00	2.795093e+05	1.000000e-10	1.118037e+05	8.424558e-01	0.000000e+00	2.911642e+02	1.810736e-05	3.957743e-03	1.074678e-05	2.221451e-01	1.489847e-28	
8.832571e-03	-1.598342e-02	1.330945e+00	0.000000e+00	0.000000e+00	2.788367e+05	1.000000e-10	1.115347e+05	7.518115e-01	0.000000e+00	2.911076e+02	1.810463e-05	4.958974e-03	9.490477e-06	2.484238e-01	1.477376e-28	
7.565698e-03	-1.484200e-02	1.327205e+00	0.000000e+00	0.000000e+00	2.780067e+05	1.000000e-10	1.112027e+05	6.399658e-01	0.000000e+00	2.910589e+02	1.810229e-05	6.101741e-03	1.068173e-05	2.752130e-01	1.461409e-28	
6.428089e-03	-1.372438e-02	1.322698e+00	0.000000e+00	0.000000e+00	2.769978e+05	1.000000e-10	1.107991e+05	5.040037e-01	0.000000e+00	2.909908e+02	1.809901e-05	7.380391e-03	1.082573e-05	3.022188e-01	1.442444e-28	
5.412677e-03	-1.263238e-02	1.317259e+00	0.000000e+00	0.000000e+00	2.758044e+05	1.000000e-10	1.103218e+05	3.431798e-01	0.000000e+00	2.909334e+02	1.809624e-05	8.779995e-03	1.397336e-05	3.290034e-01	1.419518e-28	
4.512459e-03	-1.156799e-02	1.310978e+00	0.000000e+00	0.000000e+00	2.744201e+05	1.000000e-10	1.097680e+05	1.566205e-01	0.000000e+00	2.908600e+02	1.809270e-05	1.029128e-02	1.510130e-05	3.554141e-01	1.393454e-28	
3.720425e-03	-1.053330e-02	1.303776e+00	0.000000e+00	0.000000e+00	2.728386e+05	1.000000e-10	1.091355e+05	-5.649730e-02	0.000000e+00	2.907814e+02	1.808891e-05	1.189606e-02	1.820342e-05	3.811499e-01	1.363941e-28	
3.029491e-03	-9.530503e-03	1.295849e+00	0.000000e+00	0.000000e+00	2.710958e+05	1.000000e-10	1.084383e+05	-2.913617e-01	0.000000e+00	2.906913e+02	1.808457e-05	1.356671e-02	2.016823e-05	4.058926e-01	1.332032e-28	
2.432462e-03	-8.561743e-03	1.287170e+00	0.000000e+00	0.000000e+00	2.691900e+05	1.000000e-10	1.076760e+05	-5.481967e-01	0.000000e+00	2.905940e+02	1.807988e-05	1.526089e-02	2.434258e-05	4.291576e-01	1.297714e-28	
1.922017e-03	-7.629071e-03	1.277993e+00	0.000000e+00	0.000000e+00	2.671725e+05	1.000000e-10	1.068690e+05	-8.200763e-01	0.000000e+00	2.904871e+02	1.807472e-05	1.691564e-02	2.685945e-05	4.503404e-01	1.262179e-28	
1.490740e-03	-6.734321e-03	1.268390e+00	0.000000e+00	0.000000e+00	2.650742e+05	1.000000e-10	1.060297e+05	-1.102843e+00	0.000000e+00	2.903877e+02	1.806993e-05	1.849908e-02	2.978345e-05	4.692980e-01	1.225642e-28	
1.131179e-03	-5.879016e-03	1.258519e+00	0.000000e+00	0.000000e+00	2.629255e+05	1.000000e-10	1.051702e+05	-1.392410e+00	0.000000e+00	2.902928e+02	1.806535e-05	2.001435e-02	3.195560e-05	4.863599e-01	1.188838e-28	
8.359359e-04	-5.064288e-03	1.248481e+00	0.000000e+00	0.000000e+00	2.607621e+05	1.000000e-10	1.043048e+05	-1.683952e+00	0.000000e+00	2.902191e+02	1.806179e-05	2.147710e-02	3.438951e-05	5.019045e-01	1.152040e-28	
